# TEMPERATURE = 8.500000e+01
# FREQ WR(AV) WI(AV)
1.00000000000e+00 1.38191457091e+03 -6.15702535974e-01
1.02329299228e+00 1.38191455798e+03 -6.30044084496e-01
1.04712854805e+00 1.38191454445e+03 -6.44719690176e-01
1.07151930524e+00 1.38191453027e+03 -6.59737134173e-01
1.09647819614e+00 1.38191451542e+03 -6.75104378894e-01
1.12201845430e+00 1.38191449988e+03 -6.90829572208e-01
1.14815362150e+00 1.38191448360e+03 -7.06921051773e-01
1.17489755494e+00 1.38191446656e+03 -7.23387349452e-01
1.20226443462e+00 1.38191444871e+03 -7.40237195838e-01
1.23026877081e+00 1.38191443002e+03 -7.57479524881e-01
1.25892541179e+00 1.38191441045e+03 -7.75123478629e-01
1.28824955169e+00 1.38191438996e+03 -7.93178412070e-01
1.31825673856e+00 1.38191436850e+03 -8.11653898095e-01
1.34896288259e+00 1.38191434603e+03 -8.30559732572e-01
1.38038426460e+00 1.38191432250e+03 -8.49905939540e-01
1.41253754462e+00 1.38191429786e+03 -8.69702776523e-01
1.44543977075e+00 1.38191427207e+03 -8.89960739967e-01
1.47910838817e+00 1.38191424505e+03 -9.10690570809e-01
1.51356124844e+00 1.38191421677e+03 -9.31903260167e-01
1.54881661891e+00 1.38191418715e+03 -9.53610055171e-01
1.58489319246e+00 1.38191415613e+03 -9.75822464921e-01
1.62181009736e+00 1.38191412365e+03 -9.98552266593e-01
1.65958690744e+00 1.38191408964e+03 -1.02181151168e+00
1.69824365246e+00 1.38191405403e+03 -1.04561253239e+00
1.73780082875e+00 1.38191401674e+03 -1.06996794816e+00
1.77827941004e+00 1.38191397769e+03 -1.09489067238e+00
1.81970085861e+00 1.38191393681e+03 -1.12039391920e+00
1.86208713666e+00 1.38191389399e+03 -1.14649121059e+00
1.90546071796e+00 1.38191384916e+03 -1.17319638344e+00
1.94984459976e+00 1.38191380222e+03 -1.20052359696e+00
1.99526231497e+00 1.38191375306e+03 -1.22848734013e+00
2.04173794467e+00 1.38191370159e+03 -1.25710243943e+00
2.08929613085e+00 1.38191364769e+03 -1.28638406667e+00
2.13796208950e+00 1.38191359125e+03 -1.31634774704e+00
2.18776162395e+00 1.38191353215e+03 -1.34700936734e+00
2.23872113857e+00 1.38191347026e+03 -1.37838518440e+00
2.29086765277e+00 1.38191340546e+03 -1.41049183371e+00
2.34422881532e+00 1.38191333760e+03 -1.44334633823e+00
2.39883291902e+00 1.38191326655e+03 -1.47696611739e+00
2.45470891569e+00 1.38191319215e+03 -1.51136899638e+00
2.51188643151e+00 1.38191311424e+03 -1.54657321555e+00
2.57039578277e+00 1.38191303266e+03 -1.58259744008e+00
2.63026799190e+00 1.38191294723e+03 -1.61946076992e+00
2.69153480393e+00 1.38191285778e+03 -1.65718274985e+00
2.75422870334e+00 1.38191276411e+03 -1.69578337990e+00
2.81838293126e+00 1.38191266603e+03 -1.73528312590e+00
2.88403150313e+00 1.38191256333e+03 -1.77570293037e+00
2.95120922667e+00 1.38191245578e+03 -1.81706422360e+00
3.01995172040e+00 1.38191234317e+03 -1.85938893500e+00
3.09029543251e+00 1.38191222525e+03 -1.90269950473e+00
3.16227766017e+00 1.38191210177e+03 -1.94701889562e+00
3.23593656930e+00 1.38191197248e+03 -1.99237060529e+00
3.31131121483e+00 1.38191183709e+03 -2.03877867866e+00
3.38844156139e+00 1.38191169532e+03 -2.08626772063e+00
3.46736850453e+00 1.38191154686e+03 -2.13486290918e+00
3.54813389234e+00 1.38191139142e+03 -2.18459000868e+00
3.63078054770e+00 1.38191122864e+03 -2.23547538355e+00
3.71535229097e+00 1.38191105820e+03 -2.28754601223e+00
3.80189396321e+00 1.38191087972e+03 -2.34082950147e+00
3.89045144994e+00 1.38191069283e+03 -2.39535410100e+00
3.98107170553e+00 1.38191049713e+03 -2.45114871843e+00
4.07380277804e+00 1.38191029221e+03 -2.50824293463e+00
4.16869383470e+00 1.38191007763e+03 -2.56666701936e+00
4.26579518802e+00 1.38190985294e+03 -2.62645194734e+00
4.36515832240e+00 1.38190961766e+03 -2.68762941464e+00
4.46683592151e+00 1.38190937129e+03 -2.75023185549e+00
4.57088189615e+00 1.38190911331e+03 -2.81429245944e+00
4.67735141287e+00 1.38190884317e+03 -2.87984518896e+00
4.78630092323e+00 1.38190856031e+03 -2.94692479743e+00
4.89778819368e+00 1.38190826411e+03 -3.01556684757e+00
5.01187233627e+00 1.38190795395e+03 -3.08580773021e+00
5.12861383991e+00 1.38190762917e+03 -3.15768468366e+00
5.24807460250e+00 1.38190728909e+03 -3.23123581335e+00
5.37031796370e+00 1.38190693298e+03 -3.30650011205e+00
5.49540873858e+00 1.38190656009e+03 -3.38351748054e+00
5.62341325190e+00 1.38190616962e+03 -3.46232874870e+00
5.75439937337e+00 1.38190576075e+03 -3.54297569714e+00
5.88843655356e+00 1.38190533262e+03 -3.62550107935e+00
6.02559586074e+00 1.38190488430e+03 -3.70994864432e+00
6.16595001861e+00 1.38190441486e+03 -3.79636315967e+00
6.30957344480e+00 1.38190392330e+03 -3.88479043542e+00
6.45654229035e+00 1.38190340856e+03 -3.97527734819e+00
6.60693448008e+00 1.38190286957e+03 -4.06787186600e+00
6.76082975392e+00 1.38190230518e+03 -4.16262307372e+00
6.91830970919e+00 1.38190171419e+03 -4.25958119899e+00
7.07945784384e+00 1.38190109535e+03 -4.35879763882e+00
7.24435960075e+00 1.38190044734e+03 -4.46032498681e+00
7.41310241301e+00 1.38189976880e+03 -4.56421706094e+00
7.58577575029e+00 1.38189905827e+03 -4.67052893204e+00
7.76247116629e+00 1.38189831426e+03 -4.77931695298e+00
7.94328234724e+00 1.38189753519e+03 -4.89063878840e+00
8.12830516164e+00 1.38189671940e+03 -5.00455344526e+00
8.31763771103e+00 1.38189586517e+03 -5.12112130404e+00
8.51138038202e+00 1.38189497068e+03 -5.24040415062e+00
8.70963589956e+00 1.38189403403e+03 -5.36246520901e+00
8.91250938134e+00 1.38189305324e+03 -5.48736917472e+00
9.12010839356e+00 1.38189202623e+03 -5.61518224898e+00
9.33254300797e+00 1.38189095083e+03 -5.74597217371e+00
9.54992586021e+00 1.38188982474e+03 -5.87980826731e+00
9.77237220956e+00 1.38188864558e+03 -6.01676146130e+00
1.00000000000e+01 1.38188741085e+03 -6.15690433777e+00
1.02329299228e+01 1.38188611793e+03 -6.30031116771e+00
1.04712854805e+01 1.38188476408e+03 -6.44705795022e+00
1.07151930524e+01 1.38188334643e+03 -6.59722245263e+00
1.09647819614e+01 1.38188186197e+03 -6.75088425156e+00
1.12201845430e+01 1.38188030756e+03 -6.90812477490e+00
1.14815362150e+01 1.38187867989e+03 -7.06902734474e+00
1.17489755494e+01 1.38187697551e+03 -7.23367722137e+00
1.20226443462e+01 1.38187519082e+03 -7.40216164818e+00
1.23026877081e+01 1.38187332202e+03 -7.57456989768e+00
1.25892541179e+01 1.38187136515e+03 -7.75099331855e+00
1.28824955169e+01 1.38186931606e+03 -7.93152538375e+00
1.31825673856e+01 1.38186717041e+03 -8.11626173975e+00
1.34896288259e+01 1.38186492365e+03 -8.30530025691e+00
1.38038426460e+01 1.38186257100e+03 -8.49874108098e+00
1.41253754462e+01 1.38186010749e+03 -8.69668668579e+00
1.44543977075e+01 1.38185752789e+03 -8.89924192716e+00
1.47910838817e+01 1.38185482672e+03 -9.10651409801e+00
1.51356124844e+01 1.38185199826e+03 -9.31861298478e+00
1.54881661891e+01 1.38184903651e+03 -9.53565092508e+00
1.58489319246e+01 1.38184593520e+03 -9.75774286669e+00
1.62181009736e+01 1.38184268773e+03 -9.98500642789e+00
1.65958690744e+01 1.38183928724e+03 -1.02175619592e+01
1.69824365246e+01 1.38183572651e+03 -1.04555326063e+01
1.73780082875e+01 1.38183199798e+03 -1.06990443750e+01
1.77827941004e+01 1.38182809375e+03 -1.09482261967e+01
1.81970085861e+01 1.38182400555e+03 -1.12032099964e+01
1.86208713666e+01 1.38181972470e+03 -1.14641307611e+01
1.90546071796e+01 1.38181524212e+03 -1.17311266112e+01
1.94984459976e+01 1.38181054833e+03 -1.20043388718e+01
1.99526231497e+01 1.38180563335e+03 -1.22839121472e+01
2.04173794467e+01 1.38180048678e+03 -1.25699943958e+01
2.08929613085e+01 1.38179509770e+03 -1.28627370078e+01
2.13796208950e+01 1.38178945468e+03 -1.31622948834e+01
2.18776162395e+01 1.38178354577e+03 -1.34688265140e+01
2.23872113857e+01 1.38177735843e+03 -1.37824940644e+01
2.29086765277e+01 1.38177087955e+03 -1.41034634570e+01
2.34422881532e+01 1.38176409539e+03 -1.44319044579e+01
2.39883291902e+01 1.38175699158e+03 -1.47679907650e+01
2.45470891569e+01 1.38174955306e+03 -1.51119000982e+01
2.51188643151e+01 1.38174176405e+03 -1.54638142908e+01
2.57039578277e+01 1.38173360805e+03 -1.58239193840e+01
2.63026799190e+01 1.38172506778e+03 -1.61924057228e+01
2.69153480393e+01 1.38171612513e+03 -1.65694680537e+01
2.75422870334e+01 1.38170676115e+03 -1.69553056256e+01
2.81838293126e+01 1.38169695599e+03 -1.73501222919e+01
2.88403150313e+01 1.38168668888e+03 -1.77541266149e+01
2.95120922667e+01 1.38167593806e+03 -1.81675319734e+01
3.01995172040e+01 1.38166468075e+03 -1.85905566709e+01
3.09029543251e+01 1.38165289310e+03 -1.90234240482e+01
3.16227766017e+01 1.38164055012e+03 -1.94663625962e+01
3.23593656930e+01 1.38162762568e+03 -1.99196060731e+01
3.31131121483e+01 1.38161409238e+03 -2.03833936225e+01
3.38844156139e+01 1.38159992157e+03 -2.08579698949e+01
3.46736850453e+01 1.38158508321e+03 -2.13435851715e+01
3.54813389234e+01 1.38156954589e+03 -2.18404954902e+01
3.63078054770e+01 1.38155327669e+03 -2.23489627748e+01
3.71535229097e+01 1.38153624116e+03 -2.28692549662e+01
3.80189396321e+01 1.38151840321e+03 -2.34016461569e+01
3.89045144994e+01 1.38149972509e+03 -2.39464167278e+01
3.98107170553e+01 1.38148016723e+03 -2.45038534876e+01
4.07380277804e+01 1.38145968823e+03 -2.50742498154e+01
4.16869383470e+01 1.38143824474e+03 -2.56579058057e+01
4.26579518802e+01 1.38141579137e+03 -2.62551284168e+01
4.36515832240e+01 1.38139228057e+03 -2.68662316209e+01
4.46683592151e+01 1.38136766261e+03 -2.74915365586e+01
4.57088189615e+01 1.38134188538e+03 -2.81313716950e+01
4.67735141287e+01 1.38131489434e+03 -2.87860729792e+01
4.78630092323e+01 1.38128663238e+03 -2.94559840070e+01
4.89778819368e+01 1.38125703971e+03 -3.01414561862e+01
5.01187233627e+01 1.38122605374e+03 -3.08428489047e+01
5.12861383991e+01 1.38119360894e+03 -3.15605297019e+01
5.24807460250e+01 1.38115963670e+03 -3.22948744430e+01
5.37031796370e+01 1.38112406519e+03 -3.30462674961e+01
5.49540873858e+01 1.38108681920e+03 -3.38151019120e+01
5.62341325190e+01 1.38104782002e+03 -3.46017796076e+01
5.75439937337e+01 1.38100698523e+03 -3.54067115518e+01
5.88843655356e+01 1.38096422854e+03 -3.62303179538e+01
6.02559586074e+01 1.38091945963e+03 -3.70730284551e+01
6.16595001861e+01 1.38087258393e+03 -3.79352823238e+01
6.30957344480e+01 1.38082350246e+03 -3.88175286516e+01
6.45654229035e+01 1.38077211160e+03 -3.97202265537e+01
6.60693448008e+01 1.38071830285e+03 -4.06438453709e+01
6.76082975392e+01 1.38066196268e+03 -4.15888648749e+01
6.91830970919e+01 1.38060297220e+03 -4.25557754751e+01
7.07945784384e+01 1.38054120699e+03 -4.35450784284e+01
7.24435960075e+01 1.38047653680e+03 -4.45572860510e+01
7.41310241301e+01 1.38040882529e+03 -4.55929219321e+01
7.58577575029e+01 1.38033792976e+03 -4.66525211496e+01
7.76247116629e+01 1.38026370082e+03 -4.77366304874e+01
7.94328234724e+01 1.38018598215e+03 -4.88458086543e+01
8.12830516164e+01 1.38010461008e+03 -4.99806265043e+01
8.31763771103e+01 1.38001941335e+03 -5.11416672576e+01
8.51138038202e+01 1.37993021270e+03 -5.23295267228e+01
8.70963589956e+01 1.37983682051e+03 -5.35448135196e+01
8.91250938134e+01 1.37973904044e+03 -5.47881493012e+01
9.12010839356e+01 1.37963666698e+03 -5.60601689773e+01
9.33254300797e+01 1.37952948509e+03 -5.73615209359e+01
9.54992586021e+01 1.37941726973e+03 -5.86928672647e+01
9.77237220956e+01 1.37929978538e+03 -6.00548839709e+01
1.00000000000e+02 1.37917678562e+03 -6.14482611992e+01
1.02329299228e+02 1.37904801258e+03 -6.28737034473e+01
1.04712854805e+02 1.37891319641e+03 -6.43319297787e+01
1.07151930524e+02 1.37877205481e+03 -6.58236740317e+01
1.09647819614e+02 1.37862429238e+03 -6.73496850242e+01
1.12201845430e+02 1.37846960007e+03 -6.89107267541e+01
1.14815362150e+02 1.37830765454e+03 -7.05075785928e+01
1.17489755494e+02 1.37813811753e+03 -7.21410354732e+01
1.20226443462e+02 1.37796063520e+03 -7.38119080698e+01
1.23026877081e+02 1.37777483737e+03 -7.55210229702e+01
1.25892541179e+02 1.37758033686e+03 -7.72692228373e+01
1.28824955169e+02 1.37737672868e+03 -7.90573665604e+01
1.31825673856e+02 1.37716358924e+03 -8.08863293952e+01
1.34896288259e+02 1.37694047555e+03 -8.27570030896e+01
1.38038426460e+02 1.37670692432e+03 -8.46702959956e+01
1.41253754462e+02 1.37646245106e+03 -8.66271331645e+01
1.44543977075e+02 1.37620654919e+03 -8.86284564248e+01
1.47910838817e+02 1.37593868900e+03 -9.06752244403e+01
1.51356124844e+02 1.37565831671e+03 -9.27684127466e+01
1.54881661891e+02 1.37536485332e+03 -9.49090137645e+01
1.58489319246e+02 1.37505769361e+03 -9.70980367877e+01
1.62181009736e+02 1.37473620494e+03 -9.93365079427e+01
1.65958690744e+02 1.37439972607e+03 -1.01625470118e+02
1.69824365246e+02 1.37404756596e+03 -1.03965982861e+02
1.73780082875e+02 1.37367900244e+03 -1.06359122239e+02
1.77827941004e+02 1.37329328094e+03 -1.08805980660e+02
1.81970085861e+02 1.37288961307e+03 -1.11307666657e+02
1.86208713666e+02 1.37246717522e+03 -1.13865304616e+02
1.90546071796e+02 1.37202510705e+03 -1.16480034470e+02
1.94984459976e+02 1.37156251001e+03 -1.19153011327e+02
1.99526231497e+02 1.37107844570e+03 -1.21885405050e+02
2.04173794467e+02 1.37057193426e+03 -1.24678399769e+02
2.08929613085e+02 1.37004195267e+03 -1.27533193337e+02
2.13796208950e+02 1.36948743298e+03 -1.30450996706e+02
2.18776162395e+02 1.36890726053e+03 -1.33433033229e+02
2.23872113857e+02 1.36830027209e+03 -1.36480537890e+02
2.29086765277e+02 1.36766525390e+03 -1.39594756435e+02
2.34422881532e+02 1.36700093972e+03 -1.42776944419e+02
2.39883291902e+02 1.36630600879e+03 -1.46028366147e+02
2.45470891569e+02 1.36557908372e+03 -1.49350293520e+02
2.51188643151e+02 1.36481872840e+03 -1.52744004754e+02
2.57039578277e+02 1.36402344574e+03 -1.56210782992e+02
2.63026799190e+02 1.36319167542e+03 -1.59751914778e+02
2.69153480393e+02 1.36232179165e+03 -1.63368688402e+02
2.75422870334e+02 1.36141210074e+03 -1.67062392095e+02
2.81838293126e+02 1.36046083878e+03 -1.70834312077e+02
2.88403150313e+02 1.35946616912e+03 -1.74685730434e+02
2.95120922667e+02 1.35842617999e+03 -1.78617922832e+02
3.01995172040e+02 1.35733888193e+03 -1.82632156039e+02
3.09029543251e+02 1.35620220526e+03 -1.86729685263e+02
3.16227766017e+02 1.35501399757e+03 -1.90911751285e+02
3.23593656930e+02 1.35377202109e+03 -1.95179577371e+02
3.31131121483e+02 1.35247395020e+03 -1.99534365971e+02
3.38844156139e+02 1.35111736877e+03 -2.03977295169e+02
3.46736850453e+02 1.34969976767e+03 -2.08509514890e+02
3.54813389234e+02 1.34821854223e+03 -2.13132142853e+02
3.63078054770e+02 1.34667098972e+03 -2.17846260237e+02
3.71535229097e+02 1.34505430695e+03 -2.22652907074e+02
3.80189396321e+02 1.34336558785e+03 -2.27553077345e+02
3.89045144994e+02 1.34160182122e+03 -2.32547713760e+02
3.98107170553e+02 1.33975988855e+03 -2.37637702228e+02
4.07380277804e+02 1.33783656192e+03 -2.42823865987e+02
4.16869383470e+02 1.33582850209e+03 -2.48106959393e+02
4.26579518802e+02 1.33373225679e+03 -2.53487661365e+02
4.36515832240e+02 1.33154425910e+03 -2.58966568454e+02
4.46683592151e+02 1.32926082619e+03 -2.64544187551e+02
4.57088189615e+02 1.32687815817e+03 -2.70220928212e+02
4.67735141287e+02 1.32439233734e+03 -2.75997094598e+02
4.78630092323e+02 1.32179932771e+03 -2.81872877027e+02
4.89778819368e+02 1.31909497488e+03 -2.87848343132e+02
5.01187233627e+02 1.31627500631e+03 -2.93923428627e+02
5.12861383991e+02 1.31333503203e+03 -3.00097927677e+02
5.24807460250e+02 1.31027054587e+03 -3.06371482888e+02
5.37031796370e+02 1.30707692717e+03 -3.12743574910e+02
5.49540873858e+02 1.30374944306e+03 -3.19213511676e+02
5.62341325190e+02 1.30028325143e+03 -3.25780417284e+02
5.75439937337e+02 1.29667340453e+03 -3.32443220543e+02
5.88843655356e+02 1.29291485329e+03 -3.39200643211e+02
6.02559586074e+02 1.28900245251e+03 -3.46051187944e+02
6.16595001861e+02 1.28493096676e+03 -3.52993126008e+02
6.30957344480e+02 1.28069507737e+03 -3.60024484767e+02
6.45654229035e+02 1.27628939021e+03 -3.67143035023e+02
6.60693448008e+02 1.27170844458e+03 -3.74346278243e+02
6.76082975392e+02 1.26694672317e+03 -3.81631433741e+02
6.91830970919e+02 1.26199866318e+03 -3.88995425880e+02
7.07945784384e+02 1.25685866855e+03 -3.96434871379e+02
7.24435960075e+02 1.25152112349e+03 -4.03946066801e+02
7.41310241301e+02 1.24598040733e+03 -4.11524976319e+02
7.58577575029e+02 1.24023091060e+03 -4.19167219872e+02
7.76247116629e+02 1.23426705262e+03 -4.26868061810e+02
7.94328234724e+02 1.22808330030e+03 -4.34622400152e+02
8.12830516164e+02 1.22167418855e+03 -4.42424756603e+02
8.31763771103e+02 1.21503434200e+03 -4.50269267438e+02
8.51138038202e+02 1.20815849817e+03 -4.58149675439e+02
8.70963589956e+02 1.20104153206e+03 -4.66059322997e+02
8.91250938134e+02 1.19367848217e+03 -4.73991146580e+02
9.12010839356e+02 1.18606457780e+03 -4.81937672708e+02
9.33254300797e+02 1.17819526765e+03 -4.89891015613e+02
9.54992586021e+02 1.17006624971e+03 -4.97842876768e+02
9.77237220956e+02 1.16167350212e+03 -5.05784546450e+02
1.00000000000e+03 1.15301331515e+03 -5.13706907512e+02
1.02329299228e+03 1.14408232395e+03 -5.21600441553e+02
1.04712854805e+03 1.13487754203e+03 -5.29455237627e+02
1.07151930524e+03 1.12539639524e+03 -5.37261003678e+02
1.09647819614e+03 1.11563675599e+03 -5.45007080822e+02
1.12201845430e+03 1.10559697760e+03 -5.52682460633e+02
1.14815362150e+03 1.09527592839e+03 -5.60275805529e+02
1.17489755494e+03 1.08467302531e+03 -5.67775472375e+02
1.20226443462e+03 1.07378826678e+03 -5.75169539343e+02
1.23026877081e+03 1.06262226444e+03 -5.82445836109e+02
1.25892541179e+03 1.05117627345e+03 -5.89591977358e+02
1.28824955169e+03 1.03945222099e+03 -5.96595399610e+02
1.31825673856e+03 1.02745273266e+03 -6.03443401278e+02
1.34896288259e+03 1.01518115630e+03 -6.10123185870e+02
1.38038426460e+03 1.00264158295e+03 -6.16621908189e+02
1.41253754462e+03 9.89838864627e+02 -6.22926723342e+02
1.44543977075e+03 9.76778628423e+02 -6.29024838320e+02
1.47910838817e+03 9.63467286704e+02 -6.34903565878e+02
1.51356124844e+03 9.49912043061e+02 -6.40550380386e+02
1.54881661891e+03 9.36120893716e+02 -6.45952975284e+02
1.58489319246e+03 9.22102624133e+02 -6.51099321729e+02
1.62181009736e+03 9.07866800616e+02 -6.55977727993e+02
1.65958690744e+03 8.93423756735e+02 -6.60576899128e+02
1.69824365246e+03 8.78784574449e+02 -6.64885996386e+02
1.73780082875e+03 8.63961059876e+02 -6.68894695857e+02
1.77827941004e+03 8.48965713702e+02 -6.72593245787e+02
1.81970085861e+03 8.33811696291e+02 -6.75972522008e+02
1.86208713666e+03 8.18512787628e+02 -6.79024080928e+02
1.90546071796e+03 8.03083342290e+02 -6.81740209519e+02
1.94984459976e+03 7.87538239686e+02 -6.84113971789e+02
1.99526231497e+03 7.71892829925e+02 -6.86139251209e+02
2.04173794467e+03 7.56162875663e+02 -6.87810788636e+02
2.08929613085e+03 7.40364490392e+02 -6.89124215295e+02
2.13796208950e+03 7.24514073664e+02 -6.90076080438e+02
2.18776162395e+03 7.08628243786e+02 -6.90663873359e+02
2.23872113857e+03 6.92723768572e+02 -6.90886039505e+02
2.29086765277e+03 6.76817494751e+02 -6.90741990493e+02
2.34422881532e+03 6.60926276674e+02 -6.90232107902e+02
2.39883291902e+03 6.45066904944e+02 -6.89357740817e+02
2.45470891568e+03 6.29256035629e+02 -6.88121197125e+02
2.51188643151e+03 6.13510120667e+02 -6.86525728698e+02
2.57039578277e+03 5.97845340104e+02 -6.84575510616e+02
2.63026799190e+03 5.82277536728e+02 -6.82275614682e+02
2.69153480393e+03 5.66822153659e+02 -6.79631977552e+02
2.75422870334e+03 5.51494175405e+02 -6.76651363828e+02
2.81838293126e+03 5.36308072828e+02 -6.73341324552e+02
2.88403150313e+03 5.21277752432e+02 -6.69710151560e+02
2.95120922667e+03 5.06416510294e+02 -6.65766828197e+02
3.01995172040e+03 4.91736990930e+02 -6.61520976921e+02
3.09029543251e+03 4.77251151288e+02 -6.56982804345e+02
3.16227766017e+03 4.62970230024e+02 -6.52163044284e+02
3.23593656930e+03 4.48904722122e+02 -6.47072899340e+02
3.31131121483e+03 4.35064358879e+02 -6.41723981610e+02
3.38844156139e+03 4.21458093208e+02 -6.36128253031e+02
3.46736850453e+03 4.08094090147e+02 -6.30297965878e+02
3.54813389234e+03 3.94979722415e+02 -6.24245603924e+02
3.63078054770e+03 3.82121570817e+02 -6.17983824691e+02
3.71535229097e+03 3.69525429244e+02 -6.11525403225e+02
3.80189396321e+03 3.57196313990e+02 -6.04883177769e+02
3.89045144994e+03 3.45138477072e+02 -5.98069997665e+02
3.98107170553e+03 3.33355423216e+02 -5.91098673776e+02
4.07380277804e+03 3.21849930174e+02 -5.83981931672e+02
