# TEMPERATURE = 2.500000e+01
# FREQ WR(AV) WI(AV)
1.00000000000e+00 -3.31263268511e-01 5.35458715874e-04
1.02329299228e+00 -3.31263257533e-01 5.47931146724e-04
1.04712854805e+00 -3.31263246038e-01 5.60694097460e-04
1.07151930524e+00 -3.31263234001e-01 5.73754335135e-04
1.09647819614e+00 -3.31263221397e-01 5.87118784423e-04
1.12201845430e+00 -3.31263208198e-01 6.00794531296e-04
1.14815362150e+00 -3.31263194378e-01 6.14788826775e-04
1.17489755494e+00 -3.31263179906e-01 6.29109090777e-04
1.20226443462e+00 -3.31263164752e-01 6.43762916048e-04
1.23026877081e+00 -3.31263148884e-01 6.58758072192e-04
1.25892541179e+00 -3.31263132268e-01 6.74102509785e-04
1.28824955169e+00 -3.31263114869e-01 6.89804364593e-04
1.31825673856e+00 -3.31263096650e-01 7.05871961888e-04
1.34896288259e+00 -3.31263077573e-01 7.22313820855e-04
1.38038426460e+00 -3.31263057596e-01 7.39138659115e-04
1.41253754462e+00 -3.31263036678e-01 7.56355397346e-04
1.44543977075e+00 -3.31263014774e-01 7.73973164008e-04
1.47910838817e+00 -3.31262991837e-01 7.92001300188e-04
1.51356124844e+00 -3.31262967820e-01 8.10449364550e-04
1.54881661891e+00 -3.31262942671e-01 8.29327138402e-04
1.58489319246e+00 -3.31262916337e-01 8.48644630883e-04
1.62181009736e+00 -3.31262888761e-01 8.68412084269e-04
1.65958690744e+00 -3.31262859886e-01 8.88639979403e-04
1.69824365246e+00 -3.31262829650e-01 9.09339041252e-04
1.73780082875e+00 -3.31262797990e-01 9.30520244591e-04
1.77827941004e+00 -3.31262764837e-01 9.52194819825e-04
1.81970085861e+00 -3.31262730121e-01 9.74374258939e-04
1.86208713666e+00 -3.31262693769e-01 9.97070321592e-04
1.90546071796e+00 -3.31262655705e-01 1.02029504135e-03
1.94984459976e+00 -3.31262615846e-01 1.04406073207e-03
1.99526231497e+00 -3.31262574109e-01 1.06837999443e-03
2.04173794467e+00 -3.31262530405e-01 1.09326572258e-03
2.08929613085e+00 -3.31262484641e-01 1.11873111104e-03
2.13796208950e+00 -3.31262436720e-01 1.14478966161e-03
2.18776162395e+00 -3.31262386542e-01 1.17145519062e-03
2.23872113857e+00 -3.31262333997e-01 1.19874183617e-03
2.29086765277e+00 -3.31262278977e-01 1.22666406569e-03
2.34422881532e+00 -3.31262221364e-01 1.25523668356e-03
2.39883291902e+00 -3.31262161035e-01 1.28447483900e-03
2.45470891569e+00 -3.31262097864e-01 1.31439403407e-03
2.51188643151e+00 -3.31262031715e-01 1.34501013190e-03
2.57039578277e+00 -3.31261962449e-01 1.37633936509e-03
2.63026799190e+00 -3.31261889918e-01 1.40839834432e-03
2.69153480393e+00 -3.31261813969e-01 1.44120406718e-03
2.75422870334e+00 -3.31261734440e-01 1.47477392713e-03
2.81838293126e+00 -3.31261651164e-01 1.50912572275e-03
2.88403150313e+00 -3.31261563962e-01 1.54427766719e-03
2.95120922667e+00 -3.31261472652e-01 1.58024839777e-03
3.01995172040e+00 -3.31261377038e-01 1.61705698592e-03
3.09029543251e+00 -3.31261276918e-01 1.65472294725e-03
3.16227766017e+00 -3.31261172079e-01 1.69326625190e-03
3.23593656930e+00 -3.31261062299e-01 1.73270733514e-03
3.31131121483e+00 -3.31260947346e-01 1.77306710817e-03
3.38844156139e+00 -3.31260826975e-01 1.81436696925e-03
3.46736850453e+00 -3.31260700931e-01 1.85662881498e-03
3.54813389234e+00 -3.31260568947e-01 1.89987505197e-03
3.63078054770e+00 -3.31260430743e-01 1.94412860865e-03
3.71535229097e+00 -3.31260286025e-01 1.98941294748e-03
3.80189396321e+00 -3.31260134487e-01 2.03575207735e-03
3.89045144994e+00 -3.31259975808e-01 2.08317056628e-03
3.98107170553e+00 -3.31259809650e-01 2.13169355452e-03
4.07380277804e+00 -3.31259635662e-01 2.18134676776e-03
4.16869383470e+00 -3.31259453473e-01 2.23215653087e-03
4.26579518802e+00 -3.31259262699e-01 2.28414978178e-03
4.36515832240e+00 -3.31259062933e-01 2.33735408577e-03
4.46683592151e+00 -3.31258853753e-01 2.39179765008e-03
4.57088189615e+00 -3.31258634715e-01 2.44750933884e-03
4.67735141287e+00 -3.31258405354e-01 2.50451868841e-03
4.78630092323e+00 -3.31258165184e-01 2.56285592294e-03
4.89778819368e+00 -3.31257913694e-01 2.62255197047e-03
5.01187233627e+00 -3.31257650353e-01 2.68363847926e-03
5.12861383991e+00 -3.31257374600e-01 2.74614783458e-03
5.24807460250e+00 -3.31257085852e-01 2.81011317583e-03
5.37031796370e+00 -3.31256783496e-01 2.87556841416e-03
5.49540873858e+00 -3.31256466891e-01 2.94254825034e-03
5.62341325190e+00 -3.31256135364e-01 3.01108819321e-03
5.75439937337e+00 -3.31255788213e-01 3.08122457845e-03
5.88843655356e+00 -3.31255424702e-01 3.15299458783e-03
6.02559586074e+00 -3.31255044059e-01 3.22643626891e-03
6.16595001861e+00 -3.31254645478e-01 3.30158855516e-03
6.30957344480e+00 -3.31254228112e-01 3.37849128659e-03
6.45654229035e+00 -3.31253791076e-01 3.45718523084e-03
6.60693448008e+00 -3.31253333445e-01 3.53771210476e-03
6.76082975392e+00 -3.31252854245e-01 3.62011459649e-03
6.91830970919e+00 -3.31252352462e-01 3.70443638804e-03
7.07945784384e+00 -3.31251827032e-01 3.79072217846e-03
7.24435960075e+00 -3.31251276840e-01 3.87901770743e-03
7.41310241301e+00 -3.31250700717e-01 3.96936977950e-03
7.58577575029e+00 -3.31250097444e-01 4.06182628885e-03
7.76247116629e+00 -3.31249465740e-01 4.15643624461e-03
7.94328234724e+00 -3.31248804265e-01 4.25324979682e-03
8.12830516164e+00 -3.31248111617e-01 4.35231826292e-03
8.31763771103e+00 -3.31247386326e-01 4.45369415492e-03
8.51138038202e+00 -3.31246626854e-01 4.55743120715e-03
8.70963589956e+00 -3.31245831590e-01 4.66358440467e-03
8.91250938134e+00 -3.31244998848e-01 4.77221001237e-03
9.12010839356e+00 -3.31244126861e-01 4.88336560466e-03
9.33254300797e+00 -3.31243213780e-01 4.99711009594e-03
9.54992586021e+00 -3.31242257668e-01 5.11350377173e-03
9.77237220956e+00 -3.31241256498e-01 5.23260832052e-03
1.00000000000e+01 -3.31240208145e-01 5.35448686632e-03
1.02329299228e+01 -3.31239110387e-01 5.47920400207e-03
1.04712854805e+01 -3.31237960895e-01 5.60682582370e-03
1.07151930524e+01 -3.31236757232e-01 5.73741996505e-03
1.09647819614e+01 -3.31235496845e-01 5.87105563357e-03
1.12201845430e+01 -3.31234177060e-01 6.00780364684e-03
1.14815362150e+01 -3.31232795079e-01 6.14773646994e-03
1.17489755494e+01 -3.31231347970e-01 6.29092825367e-03
1.20226443462e+01 -3.31229832665e-01 6.43745487370e-03
1.23026877081e+01 -3.31228245949e-01 6.58739397051e-03
1.25892541179e+01 -3.31226584458e-01 6.74082499038e-03
1.28824955169e+01 -3.31224844669e-01 6.89782922722e-03
1.31825673856e+01 -3.31223022891e-01 7.05848986543e-03
1.34896288259e+01 -3.31221115260e-01 7.22289202368e-03
1.38038426460e+01 -3.31219117733e-01 7.39112279975e-03
1.41253754462e+01 -3.31217026072e-01 7.56327131636e-03
1.44543977075e+01 -3.31214835842e-01 7.73942876809e-03
1.47910838817e+01 -3.31212542397e-01 7.91968846931e-03
1.51356124844e+01 -3.31210140875e-01 8.10414590326e-03
1.54881661891e+01 -3.31207626183e-01 8.29289877227e-03
1.58489319246e+01 -3.31204992988e-01 8.48604704901e-03
1.62181009736e+01 -3.31202235706e-01 8.68369302906e-03
1.65958690744e+01 -3.31199348491e-01 8.88594138454e-03
1.69824365246e+01 -3.31196325220e-01 9.09289921912e-03
1.73780082875e+01 -3.31193159483e-01 9.30467612407e-03
1.77827941004e+01 -3.31189844566e-01 9.52138423577e-03
1.81970085861e+01 -3.31186373442e-01 9.74313829443e-03
1.86208713666e+01 -3.31182738749e-01 9.97005570413e-03
1.90546071796e+01 -3.31178932782e-01 1.02022565943e-02
1.94984459976e+01 -3.31174947470e-01 1.04398638825e-02
1.99526231497e+01 -3.31170774364e-01 1.06830033386e-02
2.04173794467e+01 -3.31166404616e-01 1.09318036505e-02
2.08929613085e+01 -3.31161828960e-01 1.11863964913e-02
2.13796208950e+01 -3.31157037698e-01 1.14469165880e-02
2.18776162395e+01 -3.31152020670e-01 1.17135017915e-02
2.23872113857e+01 -3.31146767241e-01 1.19862931484e-02
2.29086765277e+01 -3.31141266273e-01 1.22654349745e-02
2.34422881532e+01 -3.31135506106e-01 1.25510749298e-02
2.39883291902e+01 -3.31129474528e-01 1.28433640949e-02
2.45470891569e+01 -3.31123158752e-01 1.31424570494e-02
2.51188643151e+01 -3.31116545395e-01 1.34485119523e-02
2.57039578277e+01 -3.31109620434e-01 1.37616906235e-02
2.63026799190e+01 -3.31102369195e-01 1.40821586273e-02
2.69153480393e+01 -3.31094776306e-01 1.44100853585e-02
2.75422870334e+01 -3.31086825676e-01 1.47456441291e-02
2.81838293126e+01 -3.31078500453e-01 1.50890122575e-02
2.88403150313e+01 -3.31069782997e-01 1.54403711604e-02
2.95120922667e+01 -3.31060654832e-01 1.57999064450e-02
3.01995172040e+01 -3.31051096614e-01 1.61678080048e-02
3.09029543251e+01 -3.31041088090e-01 1.65442701164e-02
3.16227766017e+01 -3.31030608054e-01 1.69294915391e-02
3.23593656930e+01 -3.31019634300e-01 1.73236756158e-02
3.31131121483e+01 -3.31008143578e-01 1.77270303768e-02
3.38844156139e+01 -3.30996111546e-01 1.81397686453e-02
3.46736850453e+01 -3.30983512713e-01 1.85621081457e-02
3.54813389234e+01 -3.30970320392e-01 1.89942716131e-02
3.63078054770e+01 -3.30956506638e-01 1.94364869060e-02
3.71535229097e+01 -3.30942042195e-01 1.98889871213e-02
3.80189396321e+01 -3.30926896429e-01 2.03520107108e-02
3.89045144994e+01 -3.30911037263e-01 2.08258016012e-02
3.98107170553e+01 -3.30894431115e-01 2.13106093153e-02
4.07380277804e+01 -3.30877042825e-01 2.18066890969e-02
4.16869383470e+01 -3.30858835576e-01 2.23143020371e-02
4.26579518802e+01 -3.30839770823e-01 2.28337152038e-02
4.36515832240e+01 -3.30819808208e-01 2.33652017731e-02
4.46683592151e+01 -3.30798905479e-01 2.39090411638e-02
4.57088189615e+01 -3.30777018396e-01 2.44655191744e-02
4.67735141287e+01 -3.30754100639e-01 2.50349281217e-02
4.78630092323e+01 -3.30730103717e-01 2.56175669839e-02
4.89778819368e+01 -3.30704976857e-01 2.62137415443e-02
5.01187233627e+01 -3.30678666904e-01 2.68237645388e-02
5.12861383991e+01 -3.30651118207e-01 2.74479558058e-02
5.24807460250e+01 -3.30622272502e-01 2.80866424387e-02
5.37031796370e+01 -3.30592068789e-01 2.87401589407e-02
5.49540873858e+01 -3.30560443207e-01 2.94088473826e-02
5.62341325190e+01 -3.30527328900e-01 3.00930575634e-02
5.75439937337e+01 -3.30492655874e-01 3.07931471728e-02
5.88843655356e+01 -3.30456350852e-01 3.15094819569e-02
6.02559586074e+01 -3.30418337122e-01 3.22424358864e-02
6.16595001861e+01 -3.30378534377e-01 3.29923913267e-02
6.30957344480e+01 -3.30336858547e-01 3.37597392114e-02
6.45654229035e+01 -3.30293221620e-01 3.45448792177e-02
6.60693448008e+01 -3.30247531466e-01 3.53482199441e-02
6.76082975392e+01 -3.30199691637e-01 3.61701790905e-02
6.91830970919e+01 -3.30149601173e-01 3.70111836411e-02
7.07945784384e+01 -3.30097154389e-01 3.78716700483e-02
7.24435960075e+01 -3.30042240657e-01 3.87520844198e-02
7.41310241301e+01 -3.29984744174e-01 3.96528827069e-02
7.58577575029e+01 -3.29924543725e-01 4.05745308952e-02
7.76247116629e+01 -3.29861512430e-01 4.15175051960e-02
7.94328234724e+01 -3.29795517485e-01 4.24822922408e-02
8.12830516164e+01 -3.29726419883e-01 4.34693892754e-02
8.31763771103e+01 -3.29654074132e-01 4.44793043565e-02
8.51138038202e+01 -3.29578327951e-01 4.55125565484e-02
8.70963589956e+01 -3.29499021962e-01 4.65696761215e-02
8.91250938134e+01 -3.29415989360e-01 4.76512047496e-02
9.12010839356e+01 -3.29329055568e-01 4.87576957089e-02
9.33254300797e+01 -3.29238037887e-01 4.98897140766e-02
9.54992586021e+01 -3.29142745115e-01 5.10478369280e-02
9.77237220956e+01 -3.29042977164e-01 5.22326535346e-02
1.00000000000e+02 -3.28938524650e-01 5.34447655593e-02
1.02329299228e+02 -3.28829168464e-01 5.46847872508e-02
1.04712854805e+02 -3.28714679333e-01 5.59533456360e-02
1.07151930524e+02 -3.28594817354e-01 5.72510807097e-02
1.09647819614e+02 -3.28469331511e-01 5.85786456206e-02
1.12201845430e+02 -3.28337959168e-01 5.99367068545e-02
1.14815362150e+02 -3.28200425544e-01 6.13259444124e-02
1.17489755494e+02 -3.28056443159e-01 6.27470519835e-02
1.20226443462e+02 -3.27905711265e-01 6.42007371133e-02
1.23026877081e+02 -3.27747915241e-01 6.56877213639e-02
1.25892541179e+02 -3.27582725972e-01 6.72087404670e-02
1.28824955169e+02 -3.27409799202e-01 6.87645444697e-02
1.31825673856e+02 -3.27228774843e-01 7.03558978689e-02
1.34896288259e+02 -3.27039276280e-01 7.19835797363e-02
1.38038426460e+02 -3.26840909626e-01 7.36483838320e-02
1.41253754462e+02 -3.26633262956e-01 7.53511187039e-02
1.44543977075e+02 -3.26415905510e-01 7.70926077739e-02
1.47910838817e+02 -3.26188386853e-01 7.88736894078e-02
1.51356124844e+02 -3.25950236014e-01 8.06952169677e-02
1.54881661891e+02 -3.25700960583e-01 8.25580588459e-02
1.58489319246e+02 -3.25440045769e-01 8.44630984777e-02
1.62181009736e+02 -3.25166953426e-01 8.64112343312e-02
1.65958690744e+02 -3.24881121040e-01 8.84033798734e-02
1.69824365246e+02 -3.24581960672e-01 9.04404635082e-02
1.73780082875e+02 -3.24268857864e-01 9.25234284859e-02
1.77827941004e+02 -3.23941170502e-01 9.46532327808e-02
1.81970085861e+02 -3.23598227634e-01 9.68308489344e-02
1.86208713666e+02 -3.23239328247e-01 9.90572638614e-02
1.90546071796e+02 -3.22863739997e-01 1.01333478616e-01
1.94984459976e+02 -3.22470697896e-01 1.03660508114e-01
1.99526231497e+02 -3.22059402946e-01 1.06039380808e-01
2.04173794467e+02 -3.21629020729e-01 1.08471138316e-01
2.08929613085e+02 -3.21178679947e-01 1.10956834988e-01
2.13796208950e+02 -3.20707470918e-01 1.13497537423e-01
2.18776162395e+02 -3.20214444016e-01 1.16094323916e-01
2.23872113857e+02 -3.19698608057e-01 1.18748283846e-01
2.29086765277e+02 -3.19158928645e-01 1.21460516983e-01
2.34422881532e+02 -3.18594326465e-01 1.24232132726e-01
2.39883291902e+02 -3.18003675515e-01 1.27064249252e-01
2.45470891569e+02 -3.17385801300e-01 1.29957992584e-01
2.51188643151e+02 -3.16739478969e-01 1.32914495558e-01
2.57039578277e+02 -3.16063431406e-01 1.35934896697e-01
2.63026799190e+02 -3.15356327275e-01 1.39020338970e-01
2.69153480393e+02 -3.14616779007e-01 1.42171968443e-01
2.75422870334e+02 -3.13843340760e-01 1.45390932812e-01
2.81838293126e+02 -3.13034506320e-01 1.48678379798e-01
2.88403150313e+02 -3.12188706973e-01 1.52035455412e-01
2.95120922667e+02 -3.11304309333e-01 1.55463302078e-01
3.01995172040e+02 -3.10379613140e-01 1.58963056597e-01
3.09029543251e+02 -3.09412849029e-01 1.62535847951e-01
3.16227766017e+02 -3.08402176272e-01 1.66182794939e-01
3.23593656930e+02 -3.07345680507e-01 1.69905003628e-01
3.31131121483e+02 -3.06241371446e-01 1.73703564616e-01
3.38844156139e+02 -3.05087180585e-01 1.77579550095e-01
3.46736850453e+02 -3.03880958917e-01 1.81534010706e-01
3.54813389234e+02 -3.02620474649e-01 1.85567972165e-01
3.63078054770e+02 -3.01303410951e-01 1.89682431663e-01
3.71535229097e+02 -2.99927363730e-01 1.93878354029e-01
3.80189396321e+02 -2.98489839455e-01 1.98156667630e-01
3.89045144994e+02 -2.96988253040e-01 2.02518260012e-01
3.98107170553e+02 -2.95419925794e-01 2.06963973269e-01
4.07380277804e+02 -2.93782083473e-01 2.11494599122e-01
4.16869383470e+02 -2.92071854432e-01 2.16110873707e-01
4.26579518802e+02 -2.90286267909e-01 2.20813472061e-01
4.36515832240e+02 -2.88422252458e-01 2.25603002285e-01
4.46683592151e+02 -2.86476634549e-01 2.30479999390e-01
4.57088189615e+02 -2.84446137374e-01 2.35444918818e-01
4.67735141287e+02 -2.82327379868e-01 2.40498129614e-01
4.78630092323e+02 -2.80116875991e-01 2.45639907264e-01
4.89778819368e+02 -2.77811034285e-01 2.50870426181e-01
5.01187233627e+02 -2.75406157757e-01 2.56189751847e-01
5.12861383991e+02 -2.72898444102e-01 2.61597832597e-01
5.24807460250e+02 -2.70283986324e-01 2.67094491057e-01
5.37031796370e+02 -2.67558773778e-01 2.72679415239e-01
5.49540873858e+02 -2.64718693687e-01 2.78352149295e-01
5.62341325190e+02 -2.61759533159e-01 2.84112083938e-01
5.75439937337e+02 -2.58676981781e-01 2.89958446553e-01
5.88843655356e+02 -2.55466634790e-01 2.95890291002e-01
6.02559586074e+02 -2.52123996920e-01 3.01906487154e-01
6.16595001861e+02 -2.48644486940e-01 3.08005710161e-01
6.30957344480e+02 -2.45023442939e-01 3.14186429509e-01
6.45654229035e+02 -2.41256128430e-01 3.20446897884e-01
6.60693448008e+02 -2.37337739296e-01 3.26785139888e-01
6.76082975392e+02 -2.33263411652e-01 3.33198940662e-01
6.91830970919e+02 -2.29028230663e-01 3.39685834457e-01
7.07945784384e+02 -2.24627240376e-01 3.46243093234e-01
7.24435960075e+02 -2.20055454604e-01 3.52867715335e-01
7.41310241301e+02 -2.15307868918e-01 3.59556414323e-01
7.58577575029e+02 -2.10379473786e-01 3.66305608067e-01
7.76247116629e+02 -2.05265268888e-01 3.73111408158e-01
7.94328234724e+02 -1.99960278662e-01 3.79969609764e-01
8.12830516164e+02 -1.94459569084e-01 3.86875682028e-01
8.31763771103e+02 -1.88758265708e-01 3.93824759126e-01
8.51138038202e+02 -1.82851572990e-01 4.00811632101e-01
8.70963589956e+02 -1.76734794875e-01 4.07830741618e-01
8.91250938134e+02 -1.70403356651e-01 4.14876171764e-01
9.12010839356e+02 -1.63852828044e-01 4.21941645039e-01
9.33254300797e+02 -1.57078947512e-01 4.29020518703e-01
9.54992586021e+02 -1.50077647687e-01 4.36105782598e-01
9.77237220956e+02 -1.42845081908e-01 4.43190058640e-01
1.00000000000e+03 -1.35377651736e-01 4.50265602104e-01
1.02329299228e+03 -1.27672035370e-01 4.57324304888e-01
1.04712854805e+03 -1.19725216822e-01 4.64357700881e-01
1.07151930524e+03 -1.11534515718e-01 4.71356973611e-01
1.09647819614e+03 -1.03097617548e-01 4.78312966294e-01
1.12201845430e+03 -9.44126041939e-02 4.85216194428e-01
1.14815362150e+03 -8.54779845086e-02 4.92056861055e-01
1.17489755494e+03 -7.62927247330e-02 4.98824874778e-01
1.20226443462e+03 -6.68562784955e-02 5.05509870637e-01
1.23026877081e+03 -5.71686161282e-02 5.12101233902e-01
1.25892541179e+03 -4.72302530162e-02 5.18588126816e-01
1.28824955169e+03 -3.70422766803e-02 5.24959518305e-01
1.31825673856e+03 -2.66063722814e-02 5.31204216641e-01
1.34896288259e+03 -1.59248462304e-02 5.37310904985e-01
1.38038426460e+03 -5.00064757380e-03 5.43268179755e-01
1.41253754462e+03 6.16261317362e-03 5.49064591653e-01
1.44543977075e+03 1.75606480640e-02 5.54688689214e-01
1.47910838817e+03 2.91884789445e-02 5.60129064669e-01
1.51356124844e+03 4.10404281760e-02 5.65374401853e-01
1.54881661891e+03 5.31101131244e-02 5.70413525898e-01
1.58489319246e+03 6.53904446887e-02 5.75235454370e-01
1.62181009736e+03 7.78736300871e-02 5.79829449495e-01
1.65958690744e+03 9.05511801024e-02 5.84185071064e-01
1.69824365246e+03 1.03413920934e-01 5.88292229611e-01
1.73780082875e+03 1.16452010767e-01 5.92141239390e-01
1.77827941004e+03 1.29654961116e-01 5.95722870686e-01
1.81970085861e+03 1.43011662941e-01 5.99028400972e-01
1.86208713666e+03 1.56510417498e-01 6.02049664412e-01
1.90546071796e+03 1.70138971794e-01 6.04779099210e-01
1.94984459976e+03 1.83884558496e-01 6.07209792323e-01
1.99526231497e+03 1.97733940053e-01 6.09335521045e-01
2.04173794467e+03 2.11673456751e-01 6.11150791033e-01
2.08929613085e+03 2.25689078356e-01 6.12650870314e-01
2.13796208950e+03 2.39766458955e-01 6.13831818934e-01
2.18776162395e+03 2.53890994556e-01 6.14690513856e-01
2.23872113857e+03 2.68047882966e-01 6.15224668860e-01
2.29086765277e+03 2.82222185430e-01 6.15432849182e-01
2.34422881532e+03 2.96398889494e-01 6.15314480731e-01
2.39883291902e+03 3.10562972530e-01 6.14869853764e-01
2.45470891568e+03 3.24699465347e-01 6.14100120989e-01
2.51188643151e+03 3.38793515334e-01 6.13007290105e-01
2.57039578277e+03 3.52830448543e-01 6.11594210873e-01
2.63026799190e+03 3.66795830192e-01 6.09864556877e-01
2.69153480393e+03 3.80675523045e-01 6.07822802186e-01
2.75422870334e+03 3.94455743184e-01 6.05474193185e-01
2.81838293126e+03 4.08123112720e-01 6.02824715915e-01
2.88403150313e+03 4.21664709038e-01 5.99881059288e-01
2.95120922667e+03 4.35068110203e-01 5.96650574583e-01
3.01995172040e+03 4.48321436248e-01 5.93141231682e-01
3.09029543251e+03 4.61413386072e-01 5.89361572501e-01
3.16227766017e+03 4.74333269778e-01 5.85320662124e-01
3.23593656930e+03 4.87071036309e-01 5.81028038110e-01
3.31131121483e+03 4.99617296322e-01 5.76493658498e-01
3.38844156139e+03 5.11963340277e-01 5.71727848980e-01
3.46736850453e+03 5.24101151787e-01 5.66741249741e-01
3.54813389234e+03 5.36023416322e-01 5.61544762406e-01
3.63078054770e+03 5.47723525404e-01 5.56149497554e-01
3.71535229097e+03 5.59195576466e-01 5.50566723182e-01
3.80189396321e+03 5.70434368616e-01 5.44807814515e-01
3.89045144994e+03 5.81435394520e-01 5.38884205484e-01
3.98107170553e+03 5.92194828725e-01 5.32807342181e-01
4.07380277804e+03 6.02709512674e-01 5.26588638536e-01
4.16869383470e+03 6.12976936756e-01 5.20239434465e-01
