# TEMPERATURE = 2.500000e+01
# X W(GMIDN) W(INN) W(CGSN) W(CGSON) W(CGDON) W(CBDN) W(VEAN) W(VDSATN)
0.00000000000e+00 5.19719223104e-01 1.01928797541e-12 1.63896068692e-04 3.20815214467e-10 2.76603757777e-10 3.29653636434e-10 9.39766286002e+02 4.22406907086e-02
1.00000000000e-02 7.46806105725e-01 9.95486821089e-13 1.64216586800e-04 3.21327196209e-10 2.76739895759e-10 3.29653636696e-10 6.54045779406e+02 4.22406912658e-02
2.00000000000e-02 1.07004917177e+00 9.75018959140e-13 1.64546638835e-04 3.21816327591e-10 2.76877537848e-10 3.29653637037e-10 4.56497321540e+02 4.22406920477e-02
3.00000000000e-02 1.52691845551e+00 9.58891123046e-13 1.64891354901e-04 3.22282164112e-10 2.77016711629e-10 3.29653637479e-10 3.19926640059e+02 4.22406931451e-02
4.00000000000e-02 2.16620306922e+00 9.48523915413e-13 1.65257317748e-04 3.22724479314e-10 2.77157445387e-10 3.29653638050e-10 2.25522225283e+02 4.22406946850e-02
5.00000000000e-02 3.04823774623e+00 9.45918522615e-13 1.65652871575e-04 3.23143255681e-10 2.77299768125e-10 3.29653638787e-10 1.60272689758e+02 4.22406968460e-02
6.00000000000e-02 4.24180324408e+00 9.53890600196e-13 1.66088487956e-04 3.23538670675e-10 2.77443709595e-10 3.29653639737e-10 1.15179391972e+02 4.22406998786e-02
7.00000000000e-02 5.81511481583e+00 9.76398361387e-13 1.66577192713e-04 3.23911078878e-10 2.77589300315e-10 3.29653640960e-10 8.40195683271e+01 4.22407041341e-02
8.00000000000e-02 7.81868850349e+00 1.01900275986e-12 1.67135052309e-04 3.24260991302e-10 2.77736571599e-10 3.29653642530e-10 6.24905067154e+01 4.22407101056e-02
9.00000000000e-02 1.02609145359e+01 1.08951286476e-12 1.67781709203e-04 3.24589052956e-10 2.77885555579e-10 3.29653644542e-10 4.76174362286e+01 4.22407184847e-02
1.00000000000e-01 1.30836888019e+01 1.19889081196e-12 1.68540940858e-04 3.24896019686e-10 2.78036285233e-10 3.29653647114e-10 3.73439141365e+01 4.22407302417e-02
1.10000000000e-01 1.61479621662e+01 1.36249567515e-12 1.68718882394e-04 3.25182735216e-10 2.78188794416e-10 3.29653650394e-10 3.02491483900e+01 4.22407467354e-02
1.20000000000e-01 1.92621646995e+01 1.60183441779e-12 1.69026886910e-04 3.25450109120e-10 2.78343117883e-10 3.29653654563e-10 2.53506943946e+01 4.22407698677e-02
1.30000000000e-01 2.22198182990e+01 1.94706904258e-12 1.69554945876e-04 3.25699096346e-10 2.78499291324e-10 3.29653659843e-10 2.19688672299e+01 4.22408023055e-02
1.40000000000e-01 2.48526608706e+01 2.44045596657e-12 1.70346465939e-04 3.25930678678e-10 2.78657351393e-10 3.29653666504e-10 1.96342947425e+01 4.22408477843e-02
1.50000000000e-01 2.70637981808e+01 3.14117554774e-12 1.71449159006e-04 3.26145848407e-10 2.78817335740e-10 3.29653674869e-10 1.80228503087e+01 4.22409115352e-02
1.60000000000e-01 2.88306801780e+01 4.13208001074e-12 1.72913519411e-04 3.26345594322e-10 2.78979283045e-10 3.29653685322e-10 1.69107124026e+01 4.22410008807e-02
1.70000000000e-01 3.01859361826e+01 5.52911503537e-12 1.74790349209e-04 3.26530890001e-10 2.79143233056e-10 3.29653698308e-10 1.61433281048e+01 4.22411260675e-02
1.80000000000e-01 3.11915045155e+01 7.49446340320e-12 1.77127256416e-04 3.26702684330e-10 2.79309226619e-10 3.29653714339e-10 1.56139792851e+01 4.22413014274e-02
1.90000000000e-01 3.19173174425e+01 1.02548628436e-11 1.79964234601e-04 3.26861894068e-10 2.79477305721e-10 3.29653733996e-10 1.52489807512e+01 4.22415469955e-02
2.00000000000e-01 3.24283136970e+01 1.41271044139e-11 1.83328681262e-04 3.27009398274e-10 2.79647513527e-10 3.29653757921e-10 1.49974586529e+01 4.22418907626e-02
2.10000000000e-01 3.27786725839e+01 1.95534749494e-11 1.87230467410e-04 3.27146034360e-10 2.79819894420e-10 3.29653786822e-10 1.48242921688e+01 4.22423718049e-02
2.20000000000e-01 3.30106382816e+01 2.71509357760e-11 1.91657841329e-04 3.27272595557e-10 2.79994494045e-10 3.29653821471e-10 1.47052399038e+01 4.22430446265e-02
2.30000000000e-01 3.31556291885e+01 3.77792173296e-11 1.96574960569e-04 3.27389829548e-10 2.80171359352e-10 3.29653862708e-10 1.46235752297e+01 4.22439851695e-02
2.40000000000e-01 3.32361557516e+01 5.26348639228e-11 2.01921706505e-04 3.27498438079e-10 2.80350538642e-10 3.29653911460e-10 1.45677639493e+01 4.22452991114e-02
2.50000000000e-01 3.32677783868e+01 7.33807137274e-11 2.07616281235e-04 3.27599077345e-10 2.80532081613e-10 3.29653968771e-10 1.45298621391e+01 4.22471332815e-02
2.60000000000e-01 3.32607857343e+01 1.02323490545e-10 2.13561156571e-04 3.27692358983e-10 2.80716039410e-10 3.29654035858e-10 1.45044118348e+01 4.22496913058e-02
2.70000000000e-01 3.32215108632e+01 1.42656261129e-10 2.19653492535e-04 3.27778851519e-10 2.80902464677e-10 3.29654114202e-10 1.44876811959e+01 4.22532549391e-02
2.80000000000e-01 3.31533096387e+01 1.98787589267e-10 2.25802342533e-04 3.27859082162e-10 2.81091411609e-10 3.29654205679e-10 1.44771434673e+01 4.22582129743e-02
2.90000000000e-01 3.30572630981e+01 2.76785322943e-10 2.31956876568e-04 3.27933538810e-10 2.81282936006e-10 3.29654312755e-10 1.44711220324e+01 4.22651001219e-02
3.00000000000e-01 3.29326717341e+01 3.84969929601e-10 2.38152452873e-04 3.28002672211e-10 2.81477095334e-10 3.29654438769e-10 1.44685516858e+01 4.22746488038e-02
3.10000000000e-01 3.27774037966e+01 5.34699666722e-10 2.44584524697e-04 3.28066898187e-10 2.81673948780e-10 3.29654588330e-10 1.44688220485e+01 4.22878573407e-02
3.20000000000e-01 3.25881513793e+01 7.41396633854e-10 2.51723713577e-04 3.28126599883e-10 2.81873557317e-10 3.29654767878e-10 1.44716799673e+01 4.23060783948e-02
3.30000000000e-01 3.23606408490e+01 1.02586711998e-09 2.60487919395e-04 3.28182129988e-10 2.82075983763e-10 3.29654986461e-10 1.44771752057e+01 4.23311315467e-02
3.40000000000e-01 3.20898389117e+01 1.41596885376e-09 2.72486743599e-04 3.28233812896e-10 2.82281292855e-10 3.29655256783e-10 1.44856386993e+01 4.23654431816e-02
3.50000000000e-01 3.17701915398e+01 1.94866790015e-09 2.90345065881e-04 3.28281946800e-10 2.82489551310e-10 3.29655596590e-10 1.44976856982e+01 4.24122149521e-02
3.60000000000e-01 3.13959283453e+01 2.67250431438e-09 3.18088251933e-04 3.28326805675e-10 2.82700827901e-10 3.29656030407e-10 1.45142375866e+01 4.24756183674e-02
3.70000000000e-01 3.09614573637e+01 3.65044370086e-09 3.61520506279e-04 3.28368641166e-10 2.82915193529e-10 3.29656591591e-10 1.45365562388e+01 4.25610069459e-02
3.80000000000e-01 3.04618619150e+01 4.96302913473e-09 4.28444139709e-04 3.28407684361e-10 2.83132721301e-10 3.29657324497e-10 1.45662835986e+01 4.26751285639e-02
3.90000000000e-01 2.98934902261e+01 6.71166740940e-09 5.28469332671e-04 3.28444147449e-10 2.83353486604e-10 3.29658286335e-10 1.46054770455e+01 4.28263096131e-02
4.00000000000e-01 2.92545998738e+01 9.02179720316e-09 6.72124438539e-04 3.28478225268e-10 2.83577567194e-10 3.29659548030e-10 1.46566286496e+01 4.30245712255e-02
4.10000000000e-01 2.85459866615e+01 1.20456179396e-08 8.69124028361e-04 3.28510096739e-10 2.83805043274e-10 3.29661193228e-10 1.47226547234e+01 4.32816299198e-02
4.20000000000e-01 2.77714996859e+01 1.59640402354e-08 1.12606023560e-03 3.28539926193e-10 2.84035997584e-10 3.29663314812e-10 1.48068426983e+01 4.36107361108e-02
4.30000000000e-01 2.69383326753e+01 2.09875868947e-08 1.44427509463e-03 3.28567864595e-10 2.84270515491e-10 3.29666008954e-10 1.49127469052e+01 4.40263198371e-02
4.40000000000e-01 2.60569963052e+01 2.73561486658e-08 1.81881930174e-03 3.28594050673e-10 2.84508685080e-10 3.29669367701e-10 1.50440341410e+01 4.45434467615e-02
4.50000000000e-01 2.51409194872e+01 3.53377711028e-08 2.23895993181e-03 3.28618611953e-10 2.84750597248e-10 3.29673471740e-10 1.52042928878e+01 4.51771351228e-02
4.60000000000e-01 2.42056905253e+01 4.52269651957e-08 2.68997898140e-03 3.28641665708e-10 2.84996345802e-10 3.29678384969e-10 1.53968331675e+01 4.59416329630e-02
4.70000000000e-01 2.32680140378e+01 5.73433056376e-08 3.15554999043e-03 3.28663319832e-10 2.85246027563e-10 3.29684151798e-10 1.56245119570e+01 4.68497852438e-02
4.80000000000e-01 2.23445095460e+01 7.20312064629e-08 3.61998028934e-03 3.28683673634e-10 2.85499742459e-10 3.29690797271e-10 1.58896171907e+01 4.79126150851e-02
4.90000000000e-01 2.14505034104e+01 8.96616720255e-08 4.06986803310e-03 3.28702818565e-10 2.85757593638e-10 3.29698329422e-10 1.61938305141e+01 4.91391976300e-02
5.00000000000e-01 2.05989661001e+01 1.10636503731e-07 4.49501491036e-03 3.28720838889e-10 2.86019687566e-10 3.29706742995e-10 1.65382690409e+01 5.05368323696e-02
5.10000000000e-01 1.97997233338e+01 1.35394969819e-07 4.88865261767e-03 3.28737812285e-10 2.86286134141e-10 3.29716023634e-10 1.69235867556e+01 5.21114464884e-02
5.20000000000e-01 1.90590248388e+01 1.64422444595e-07 5.24716296785e-03 3.28753810404e-10 2.86557046795e-10 3.29726151861e-10 1.73501039500e+01 5.38681138958e-02
5.30000000000e-01 1.83794946677e+01 1.98260129305e-07 5.56950715181e-03 3.28768899377e-10 2.86832542605e-10 3.29737106428e-10 1.78179314595e+01 5.58115649552e-02
5.40000000000e-01 1.77604250963e+01 2.37514765371e-07 5.85655350607e-03 3.28783140275e-10 2.87112742404e-10 3.29748866861e-10 1.83270639825e+01 5.79465863610e-02
5.50000000000e-01 1.71983279664e+01 2.82867252166e-07 6.11043643550e-03 3.28796589531e-10 2.87397770884e-10 3.29761415217e-10 1.88774289603e+01 6.02782536061e-02
5.60000000000e-01 1.66876339964e+01 3.35079232623e-07 6.33401903307e-03 3.28809299325e-10 2.87687756706e-10 3.29774737170e-10 1.94688895989e+01 6.28119827989e-02
5.70000000000e-01 1.62214332958e+01 3.94996933423e-07 6.53048436139e-03 3.28821317933e-10 2.87982832602e-10 3.29788822572e-10 2.01012095428e+01 6.55534225323e-02
5.80000000000e-01 1.57921717341e+01 4.63551778454e-07 6.70305015853e-03 3.28832690050e-10 2.88283135473e-10 3.29803665647e-10 2.07739915095e+01 6.85082259475e-02
5.90000000000e-01 1.53922471832e+01 5.41757503133e-07 6.85478679376e-03 3.28843457080e-10 2.88588806489e-10 3.29819264944e-10 2.14866034117e+01 7.16817496544e-02
6.00000000000e-01 1.50144779115e+01 6.30703680893e-07 6.98851390094e-03 3.28853657404e-10 2.88899991171e-10 3.29835623145e-10 2.22381043371e+01 7.50787238659e-02
6.10000000000e-01 1.46524374471e+01 7.31545744787e-07 7.10675265672e-03 3.28863326624e-10 2.89216839476e-10 3.29852746809e-10 2.30271803576e+01 7.87029311399e-02
6.20000000000e-01 1.43006647262e+01 8.45491759848e-07 7.21171478300e-03 3.28872497782e-10 2.89539505861e-10 3.29870646082e-10 2.38520973321e+01 8.25569224866e-02
6.30000000000e-01 1.39547663236e+01 9.73786379352e-07 7.30531400787e-03 3.28881201570e-10 2.89868149341e-10 3.29889334427e-10 2.47106750918e+01 8.66417909960e-02
6.40000000000e-01 1.36114308796e+01 1.11769259209e-06 7.38918990538e-03 3.28889466510e-10 2.90202933530e-10 3.29908828360e-10 2.56002848819e+01 9.09570152911e-02
6.50000000000e-01 1.32683762757e+01 1.27847202059e-06 7.46473738277e-03 3.28897319126e-10 2.90544026656e-10 3.29929147233e-10 2.65178697570e+01 9.55003782227e-02
6.60000000000e-01 1.29242489523e+01 1.45736464052e-06 7.53313756841e-03 3.28904784101e-10 2.90891601563e-10 3.29950313043e-10 2.74599858298e+01 1.00267960320e-01
6.70000000000e-01 1.25784927673e+01 1.65556884056e-06 7.59538759680e-03 3.28911884418e-10 2.91245835673e-10 3.29972350281e-10 2.84228608990e+01 1.05254202616e-01
6.80000000000e-01 1.22312023795e+01 1.87422271933e-06 7.65232795436e-03 3.28918641491e-10 2.91606910927e-10 3.29995285807e-10 2.94024660446e+01 1.10452029623e-01
6.90000000000e-01 1.18829735026e+01 2.11438742003e-06 7.70466679739e-03 3.28925075285e-10 2.91975013675e-10 3.30019148767e-10 3.03945953146e+01 1.15853020568e-01
7.00000000000e-01 1.15347596555e+01 2.37703314674e-06 7.75300110948e-03 3.28931204424e-10 2.92350334529e-10 3.30043970527e-10 3.13949485951e+01 1.21447615472e-01
7.10000000000e-01 1.11877423451e+01 2.66302830539e-06 7.79783482604e-03 3.28937046295e-10 2.92733068160e-10 3.30069784634e-10 3.23992131261e+01 1.27225342324e-01
7.20000000000e-01 1.08432191068e+01 2.97313199335e-06 7.83959418824e-03 3.28942617137e-10 2.93123413026e-10 3.30096626808e-10 3.34031397921e+01 1.33175052314e-01
7.30000000000e-01 1.05025115937e+01 3.30798984625e-06 7.87864064502e-03 3.28947932127e-10 2.93521571038e-10 3.30124534938e-10 3.44026111898e+01 1.39285151535e-01
7.40000000000e-01 1.01668940669e+01 3.66813306111e-06 7.91528163149e-03 3.28953005458e-10 2.93927747128e-10 3.30153549110e-10 3.53936994245e+01 1.45543819693e-01
7.50000000000e-01 9.83754122933e+00 4.05398026479e-06 7.94977953606e-03 3.28957850412e-10 2.94342148734e-10 3.30183711639e-10 3.63727125305e+01 1.51939208678e-01
7.60000000000e-01 9.51549338186e+00 4.46584179312e-06 7.98235913975e-03 3.28962479422e-10 2.94764985162e-10 3.30215067126e-10 3.73362292475e+01 1.58459616217e-01
7.70000000000e-01 9.20163632489e+00 4.90392589077e-06 8.01321377704e-03 3.28966904139e-10 2.95196466821e-10 3.30247662518e-10 3.82811225754e+01 1.65093632074e-01
7.80000000000e-01 8.89669321006e+00 5.36834632907e-06 8.04251043335e-03 3.28971135482e-10 2.95636804318e-10 3.30281547186e-10 3.92045730482e+01 1.71830256124e-01
7.90000000000e-01 8.60122559549e+00 5.85913096076e-06 8.07039396178e-03 3.28975183692e-10 2.96086207374e-10 3.30316773017e-10 4.01040730023e+01 1.78658989150e-01
8.00000000000e-01 8.31564118444e+00 6.37623077859e-06 8.09699057252e-03 3.28979058379e-10 2.96544883556e-10 3.30353394506e-10 4.09774232956e+01 1.85569898339e-01
8.10000000000e-01 8.04020606116e+00 6.91952910680e-06 8.12241072307e-03 3.28982768569e-10 2.97013036796e-10 3.30391468874e-10 4.18227239769e+01 1.92553660125e-01
8.20000000000e-01 7.77505961801e+00 7.48885062534e-06 8.14675151520e-03 3.28986322738e-10 2.97490865659e-10 3.30431056181e-10 4.26383603540e+01 1.99601583482e-01
8.30000000000e-01 7.52023075035e+00 8.08396999614e-06 8.17009868631e-03 3.28989728855e-10 2.97978561345e-10 3.30472219465e-10 4.34229857796e+01 2.06705616837e-01
8.40000000000e-01 7.27565424909e+00 8.70461992696e-06 8.19252826713e-03 3.28992994415e-10 2.98476305383e-10 3.30515024875e-10 4.41755023122e+01 2.13858341721e-01
8.50000000000e-01 7.04118662983e+00 9.35049856581e-06 8.21410796500e-03 3.28996126469e-10 2.98984266990e-10 3.30559541831e-10 4.48950402244e+01 2.21052956066e-01
8.60000000000e-01 6.81662089399e+00 1.00212761680e-05 8.23489832116e-03 3.28999131657e-10 2.99502600055e-10 3.30605843184e-10 4.55809371455e+01 2.28283249720e-01
8.70000000000e-01 6.60169992060e+00 1.07166010164e-05 8.25495368173e-03 3.29002016233e-10 3.00031439721e-10 3.30654005390e-10 4.62327174515e+01 2.35543574451e-01
8.80000000000e-01 6.39612834313e+00 1.14361046058e-05 8.27432301495e-03 3.29004786090e-10 3.00570898518e-10 3.30704108699e-10 4.68500723611e+01 2.42828810315e-01
8.90000000000e-01 6.19958287831e+00 1.21794061241e-05 8.29305060122e-03 3.29007446787e-10 3.01121062030e-10 3.30756237355e-10 4.74328410595e+01 2.50134329961e-01
9.00000000000e-01 6.01172115247e+00 1.29461162758e-05 8.31117661781e-03 3.29010003564e-10 3.01681984055e-10 3.30810479805e-10 4.79809930614e+01 2.57455962112e-01
9.10000000000e-01 5.83218912117e+00 1.37358405052e-05 8.32873763605e-03 3.29012461371e-10 3.02253681239e-10 3.30866928931e-10 4.84946119358e+01 2.64789955173e-01
9.20000000000e-01 5.66062720749e+00 1.45481816792e-05 8.34576704563e-03 3.29014824880e-10 3.02836127181e-10 3.30925682285e-10 4.89738804414e+01 2.72132941711e-01
9.30000000000e-01 5.49667529829e+00 1.53827422890e-05 8.36229541817e-03 3.29017098505e-10 3.03429245994e-10 3.30986842349e-10 4.94190670730e+01 2.79481904331e-01
9.40000000000e-01 5.33997674040e+00 1.62391262327e-05 8.37835081987e-03 3.29019286418e-10 3.04032905351e-10 3.31050516805e-10 4.98305139765e+01 2.86834143286e-01
9.50000000000e-01 5.19018147466e+00 1.71169402337e-05 8.39395908134e-03 3.29021392565e-10 3.04646909053e-10 3.31116818831e-10 5.02086261674e+01 2.94187246086e-01
9.60000000000e-01 5.04694843636e+00 1.80157949472e-05 8.40914403155e-03 3.29023420678e-10 3.05270989190e-10 3.31185867400e-10 5.05538619673e+01 3.01539059191e-01
9.70000000000e-01 4.90994733933e+00 1.89353058034e-05 8.42392770127e-03 3.29025374291e-10 3.05904797995e-10 3.31257787616e-10 5.08667245654e+01 3.08887661869e-01
9.80000000000e-01 4.77885994780e+00 1.98750936276e-05 8.43833050077e-03 3.29027256748e-10 3.06547899546e-10 3.31332711062e-10 5.11477546080e+01 3.16231342165e-01
9.90000000000e-01 4.65338092781e+00 2.08347850773e-05 8.45237137551e-03 3.29029071218e-10 3.07199761490e-10 3.31410776166e-10 5.13975237173e+01 3.23568574962e-01
1.00000000000e+00 4.53321835699e+00 2.18140129270e-05 8.46606794316e-03 3.29030820704e-10 3.07859747056e-10 3.31492128604e-10 5.16166288445e+01 3.30898002004e-01
1.01000000000e+00 4.41809396035e+00 2.28124162300e-05 8.47943661447e-03 3.29032508055e-10 3.08527107647e-10 3.31576921716e-10 5.18056873680e+01 3.38218413803e-01
1.02000000000e+00 4.30774312926e+00 2.38296403811e-05 8.49249270039e-03 3.29034135971e-10 3.09200976361e-10 3.31665316952e-10 5.19653328520e+01 3.45528733287e-01
1.03000000000e+00 4.20191477147e+00 2.48653371011e-05 8.50525050720e-03 3.29035707016e-10 3.09880362877e-10 3.31757484356e-10 5.20962113877e+01 3.52828001079e-01
1.04000000000e+00 4.10037103172e+00 2.59191643601e-05 8.51772342136e-03 3.29037223622e-10 3.10564150137e-10 3.31853603066e-10 5.21989784465e+01 3.60115362259e-01
1.05000000000e+00 4.00288691603e+00 2.69907862537e-05 8.52992398532e-03 3.29038688100e-10 3.11251093330e-10 3.31953861860e-10 5.22742961825e+01 3.67390054501e-01
1.06000000000e+00 3.90924984604e+00 2.80798728459e-05 8.54186396552e-03 3.29040102646e-10 3.11939821670e-10 3.32058459732e-10 5.23228311247e+01 3.74651397451e-01
1.07000000000e+00 3.81925916537e+00 2.91860999859e-05 8.55355441346e-03 3.29041469347e-10 3.12628843434e-10 3.32167606502e-10 5.23452522108e+01 3.81898783238e-01
1.08000000000e+00 3.73272561510e+00 3.03091491092e-05 8.56500572080e-03 3.29042790186e-10 3.13316554684e-10 3.32281523479e-10 5.23422291149e+01 3.89131668003e-01
1.09000000000e+00 3.64947079254e+00 3.14487070284e-05 8.57622766913e-03 3.29044067051e-10 3.14001251981e-10 3.32400444152e-10 5.23144308307e+01 3.96349564352e-01
1.10000000000e+00 3.56932660382e+00 3.26044657184e-05 8.58722947495e-03 3.29045301738e-10 3.14681149246e-10 3.32524614939e-10 5.22625244750e+01 4.03552034632e-01
1.11000000000e+00 3.49213471900e+00 3.37761221015e-05 8.59801983057e-03 3.29046495956e-10 3.15354398756e-10 3.32654295981e-10 5.21871742804e+01 4.10738684954e-01
1.12000000000e+00 3.41774603605e+00 3.49633778343e-05 8.60860694120e-03 3.29047651334e-10 3.16019115981e-10 3.32789761991e-10 5.20890407506e+01 4.17909159875e-01
1.13000000000e+00 3.34602015842e+00 3.61659390992e-05 8.61899855882e-03 3.29048769421e-10 3.16673407775e-10 3.32931303158e-10 5.19687799557e+01 4.25063137674e-01
1.14000000000e+00 3.27682488998e+00 3.73835164026e-05 8.62920201296e-03 3.29049851696e-10 3.17315403134e-10 3.33079226117e-10 5.18270429460e+01 4.32200326162e-01
1.15000000000e+00 3.21003574942e+00 3.86158243802e-05 8.63922423887e-03 3.29050899568e-10 3.17943285493e-10 3.33233854978e-10 5.16644752683e+01 4.39320458956e-01
1.16000000000e+00 3.14553550608e+00 3.98625816113e-05 8.64907180333e-03 3.29051914379e-10 3.18555325368e-10 3.33395532433e-10 5.14817165678e+01 4.46423292176e-01
1.17000000000e+00 3.08321373791e+00 4.11235104417e-05 8.65875092817e-03 3.29052897412e-10 3.19149912013e-10 3.33564620931e-10 5.12794002644e+01 4.53508601517e-01
1.18000000000e+00 3.02296641200e+00 4.23983368159e-05 8.66826751191e-03 3.29053849889e-10 3.19725582700e-10 3.33741503942e-10 5.10581532908e+01 4.60576179648e-01
1.19000000000e+00 2.96469548792e+00 4.36867901185e-05 8.67762714961e-03 3.29054772978e-10 3.20281048365e-10 3.33926587300e-10 5.08185958830e+01 4.67625833906e-01
1.20000000000e+00 2.90830854324e+00 4.49886030250e-05 8.68683515105e-03 3.29055667793e-10 3.20815214467e-10 3.34120300646e-10 5.05613414154e+01 4.74657384251e-01
