# TEMPERATURE = 2.500000e+01
# X W(GMIDN) W(INN) W(CGSN) W(CGSON) W(CGDON) W(CBDN) W(VEAN) W(VDSATN)
0.00000000000e+00 3.00351793469e+01 9.25378931993e-12 1.92057612653e-04 3.09678738855e-10 3.06970233095e-10 2.97323977874e-10 4.70286938393e+00 4.33200694623e-02
1.00000000000e-02 3.05988233110e+01 1.25191210266e-11 1.93464563418e-04 3.09690295482e-10 3.06992182353e-10 2.97324014726e-10 4.61493397080e+00 4.33202600564e-02
2.00000000000e-02 3.10086589853e+01 1.70239158366e-11 1.94657603367e-04 3.09701173891e-10 3.07014167918e-10 2.97324052703e-10 4.55242996269e+00 4.33205227210e-02
3.00000000000e-02 3.13021125572e+01 2.32357246416e-11 1.95611820684e-04 3.09711387365e-10 3.07036189873e-10 2.97324091574e-10 4.50799817526e+00 4.33208846486e-02
4.00000000000e-02 3.15069297267e+01 3.17978483351e-11 1.96200887583e-04 3.09720952845e-10 3.07058248299e-10 2.97324131113e-10 4.47641581825e+00 4.33213832505e-02
5.00000000000e-02 3.16401898064e+01 4.35926556411e-11 1.96075694335e-04 3.09729890499e-10 3.07080343276e-10 2.97324171111e-10 4.45397819426e+00 4.33220698372e-02
6.00000000000e-02 3.17251742613e+01 5.98319837644e-11 1.95741164769e-04 3.09738223251e-10 3.07102474883e-10 2.97324211427e-10 4.43805169064e+00 4.33230148719e-02
7.00000000000e-02 3.17738428085e+01 8.21799039215e-11 1.95268948646e-04 3.09745976276e-10 3.07124643199e-10 2.97324252041e-10 4.42676686447e+00 4.33243151012e-02
8.00000000000e-02 3.17946274956e+01 1.12918336198e-10 1.94786445196e-04 3.09753176483e-10 3.07146848301e-10 2.97324293120e-10 4.41879998378e+00 4.33261031715e-02
9.00000000000e-02 3.17932875103e+01 1.55173298630e-10 1.94498391204e-04 3.09759852012e-10 3.07169090267e-10 2.97324335125e-10 4.41321646496e+00 4.33285607562e-02
1.00000000000e-01 3.17735602023e+01 2.13222069849e-10 1.94715107628e-04 3.09766031757e-10 3.07191369173e-10 2.97324378941e-10 4.40936043708e+00 4.33319363621e-02
1.10000000000e-01 3.17376410659e+01 2.92908994751e-10 1.95888991371e-04 3.09771744926e-10 3.07213685091e-10 2.97324426065e-10 4.40677718925e+00 4.33365694022e-02
1.20000000000e-01 3.16865282733e+01 4.02206409067e-10 1.98660887086e-04 3.09777020647e-10 3.07236038097e-10 2.97324478841e-10 4.40515920597e+00 4.33429226135e-02
1.30000000000e-01 3.16202639251e+01 5.51968188626e-10 2.03917641364e-04 3.09781887631e-10 3.07258428261e-10 2.97324540774e-10 4.40430929840e+00 4.33516254997e-02
1.40000000000e-01 3.15380989917e+01 7.56937034601e-10 2.12861006050e-04 3.09786373888e-10 3.07280855655e-10 2.97324616924e-10 4.40411634026e+00 4.33635322026e-02
1.50000000000e-01 3.14386039969e+01 1.03708290196e-09 2.27085431905e-04 3.09790506496e-10 3.07303320346e-10 2.97324714407e-10 4.40454055323e+00 4.33797980317e-02
1.60000000000e-01 3.13197436273e+01 1.41936871868e-09 2.48657235015e-04 3.09794311422e-10 3.07325822403e-10 2.97324842982e-10 4.40560632266e+00 4.34019797466e-02
1.70000000000e-01 3.11789308077e+01 1.94005984831e-09 2.80179212943e-04 3.09797813395e-10 3.07348361890e-10 2.97325015744e-10 4.40740126885e+00 4.34321654863e-02
1.80000000000e-01 3.10130742077e+01 2.64771373132e-09 3.24813067026e-04 3.09801035818e-10 3.07370938870e-10 2.97325249850e-10 4.41008081837e+00 4.34731407224e-02
1.90000000000e-01 3.08186322967e+01 3.60700244658e-09 3.86219779645e-04 3.09804000714e-10 3.07393553405e-10 2.97325567217e-10 4.41387784381e+00 4.35285964274e-02
2.00000000000e-01 3.05916863926e+01 4.90352826301e-09 4.68373318891e-04 3.09806728710e-10 3.07416205554e-10 2.97325995038e-10 4.41911706691e+00 4.36033841940e-02
2.10000000000e-01 3.03280439400e+01 6.64978300178e-09 5.75218729089e-04 3.09809239041e-10 3.07438895373e-10 2.97326565963e-10 4.42623381603e+00 4.37038195071e-02
2.20000000000e-01 3.00233805919e+01 8.99236632108e-09 7.10192640191e-04 3.09811549580e-10 3.07461622916e-10 2.97327317782e-10 4.43579633887e+00 4.38380277288e-02
2.30000000000e-01 2.96734246800e+01 1.21205044230e-08 8.75694784384e-04 3.09813676877e-10 3.07484388233e-10 2.97328292535e-10 4.44853012860e+00 4.40163165388e-02
2.40000000000e-01 2.92741798848e+01 1.62757878523e-08 1.07265503256e-03 3.09815636215e-10 3.07507191373e-10 2.97329535147e-10 4.46534158572e+00 4.42515428502e-02
2.50000000000e-01 2.88221720620e+01 2.17628666209e-08 1.30033161068e-03 3.09817441674e-10 3.07530032379e-10 2.97331091812e-10 4.48733684960e+00 4.45594219697e-02
2.60000000000e-01 2.83146969221e+01 2.89606010440e-08 1.55639039720e-03 3.09819106195e-10 3.07552911293e-10 2.97333008392e-10 4.51582999982e+00 4.49587044695e-02
2.70000000000e-01 2.77500414847e+01 3.83328764406e-08 1.83720528158e-03 3.09820641654e-10 3.07575828151e-10 2.97335329070e-10 4.55233351024e+00 4.54711276530e-02
2.80000000000e-01 2.71276596607e+01 5.04379743967e-08 2.13825890648e-03 3.09822058932e-10 3.07598782987e-10 2.97338095331e-10 4.59852358838e+00 4.61210430759e-02
2.90000000000e-01 2.64483033781e+01 6.59351021057e-08 2.45453637789e-03 3.09823367989e-10 3.07621775829e-10 2.97341345262e-10 4.65617477665e+00 4.69346411806e-02
3.00000000000e-01 2.57141387303e+01 8.55865009403e-08 2.78085715216e-03 3.09824577926e-10 3.07644806699e-10 2.97345113117e-10 4.72706267476e+00 4.79387485428e-02
3.10000000000e-01 2.49288930352e+01 1.10253620785e-07 3.11213622548e-03 3.09825697059e-10 3.07667875617e-10 2.97349429082e-10 4.81284084229e+00 4.91592631603e-02
3.20000000000e-01 2.40980597722e+01 1.40886328471e-07 3.44358575239e-03 3.09826732979e-10 3.07690982596e-10 2.97354319219e-10 4.91490648108e+00 5.06194026949e-02
3.30000000000e-01 2.32291247505e+01 1.78505151541e-07 3.77086862879e-03 3.09827692613e-10 3.07714127641e-10 2.97359805566e-10 5.03427656393e+00 5.23380354966e-02
3.40000000000e-01 2.23316934230e+01 2.24178100276e-07 4.09020955545e-03 3.09828582279e-10 3.07737310753e-10 2.97365906381e-10 5.17149827002e+00 5.43284019630e-02
3.50000000000e-01 2.14173524668e+01 2.78995304180e-07 4.39846489103e-03 3.09829407740e-10 3.07760531926e-10 2.97372636514e-10 5.32661265629e+00 5.65974838007e-02
3.60000000000e-01 2.04991402024e+01 3.44045888874e-07 4.69315221592e-03 3.09830174251e-10 3.07783791144e-10 2.97380007876e-10 5.49917901246e+00 5.91461436829e-02
3.70000000000e-01 1.95906301724e+01 4.20401530451e-07 4.97244268034e-03 3.09830886604e-10 3.07807088386e-10 2.97388029977e-10 5.68835303077e+00 6.19699793791e-02
3.80000000000e-01 1.87047872908e+01 5.09109689375e-07 5.23512197728e-03 3.09831549172e-10 3.07830423619e-10 2.97396710502e-10 5.89300000120e+00 6.50606781229e-02
3.90000000000e-01 1.78528517398e+01 6.11197046145e-07 5.48052781580e-03 3.09832165944e-10 3.07853796802e-10 2.97406055882e-10 6.11181878853e+00 6.84075724059e-02
4.00000000000e-01 1.70434954568e+01 7.27681050670e-07 5.70847253048e-03 3.09832740560e-10 3.07877207885e-10 2.97416071850e-10 6.34345434448e+00 7.19991060571e-02
4.10000000000e-01 1.62823967200e+01 8.59585693415e-07 5.91915900271e-03 3.09833276342e-10 3.07900656805e-10 2.97426763938e-10 6.58658385523e+00 7.58239994790e-02
4.20000000000e-01 1.55722484600e+01 1.00795710020e-06 6.11309674977e-03 3.09833776327e-10 3.07924143487e-10 2.97438137933e-10 6.83997075003e+00 7.98720138173e-02
4.30000000000e-01 1.49131124009e+01 1.17387524501e-06 6.29102329648e-03 3.09834243289e-10 3.07947667843e-10 2.97450200254e-10 7.10248855817e+00 8.41343156078e-02
4.40000000000e-01 1.43029814665e+01 1.35845947132e-06 6.45383415196e-03 3.09834679763e-10 3.07971229773e-10 2.97462958275e-10 7.37312136945e+00 8.86035122967e-02
4.50000000000e-01 1.37384137901e+01 1.56286704247e-06 6.60252312402e-03 3.09835088068e-10 3.07994829158e-10 2.97476420586e-10 7.65094932871e+00 9.32734599368e-02
4.60000000000e-01 1.32151334372e+01 1.78828519798e-06 6.73813344433e-03 3.09835470328e-10 3.08018465866e-10 2.97490597195e-10 7.93512700160e+00 9.81389449424e-02
4.70000000000e-01 1.27285345619e+01 2.03591800094e-06 6.86171928114e-03 3.09835828488e-10 3.08042139744e-10 2.97505499687e-10 8.22486065511e+00 1.03195324312e-01
4.80000000000e-01 1.22740629324e+01 2.30696963197e-06 6.97431665287e-03 3.09836164330e-10 3.08065850622e-10 2.97521141343e-10 8.51938838272e+00 1.08438184344e-01
4.90000000000e-01 1.18474753099e+01 2.60262582355e-06 7.07692246390e-03 3.09836479487e-10 3.08089598306e-10 2.97537537234e-10 8.81796511162e+00 1.13863054070e-01
5.00000000000e-01 1.14449925577e+01 2.92403495829e-06 7.17048029174e-03 3.09836775459e-10 3.08113382583e-10 2.97554704281e-10 9.11985309329e+00 1.19465190221e-01
5.10000000000e-01 1.10633688788e+01 3.27229008097e-06 7.25587159752e-03 3.09837053624e-10 3.08137203211e-10 2.97572661305e-10 9.42431753196e+00 1.25239436616e-01
5.20000000000e-01 1.06999002589e+01 3.64841276680e-06 7.33391115425e-03 3.09837315248e-10 3.08161059922e-10 2.97591429069e-10 9.73062647581e+00 1.31180152043e-01
5.30000000000e-01 1.03523926434e+01 4.05333948963e-06 7.40534564936e-03 3.09837561492e-10 3.08184952420e-10 2.97611030303e-10 1.00380538774e+01 1.37281195872e-01
5.40000000000e-01 1.00191064657e+01 4.48791086566e-06 7.47085459154e-03 3.09837793430e-10 3.08208880376e-10 2.97631489735e-10 1.03458847207e+01 1.43535958770e-01
5.50000000000e-01 9.69869003340e+00 4.95286391931e-06 7.53105281818e-03 3.09838012047e-10 3.08232843423e-10 2.97652834119e-10 1.06534212249e+01 1.49937425833e-01
5.60000000000e-01 9.39011055590e+00 5.44882733242e-06 7.58649405065e-03 3.09838218252e-10 3.08256841161e-10 2.97675092260e-10 1.09599893158e+01 1.56478260615e-01
5.70000000000e-01 9.09258853299e+00 5.97631949493e-06 7.63767507357e-03 3.09838412884e-10 3.08280873143e-10 2.97698295055e-10 1.12649447469e+01 1.63150900227e-01
5.80000000000e-01 8.80553885264e+00 6.53574907234e-06 7.68504022221e-03 3.09838596716e-10 3.08304938881e-10 2.97722475522e-10 1.15676784492e+01 1.69947653590e-01
5.90000000000e-01 8.52852021554e+00 7.12741773999e-06 7.72898594875e-03 3.09838770463e-10 3.08329037833e-10 2.97747668855e-10 1.18676208494e+01 1.76860796854e-01
6.00000000000e-01 8.26119330863e+00 7.75152470030e-06 7.76986530704e-03 3.09838934786e-10 3.08353169407e-10 2.97773912469e-10 1.21642450413e+01 1.83882661722e-01
6.10000000000e-01 8.00328737862e+00 8.40817259267e-06 7.80799224827e-03 3.09839090296e-10 3.08377332947e-10 2.97801246061e-10 1.24570687953e+01 1.91005713899e-01
6.20000000000e-01 7.75457440414e+00 9.09737441995e-06 7.84364565994e-03 3.09839237558e-10 3.08401527735e-10 2.97829711683e-10 1.27456554731e+01 1.98222620164e-01
6.30000000000e-01 7.51484984303e+00 9.81906114577e-06 7.87707311032e-03 3.09839377096e-10 3.08425752981e-10 2.97859353812e-10 1.30296139603e+01 2.05526303478e-01
6.40000000000e-01 7.28391886507e+00 1.05730896563e-05 7.90849428150e-03 3.09839509397e-10 3.08450007816e-10 2.97890219439e-10 1.33085977623e+01 2.12909986316e-01
6.50000000000e-01 7.06158701671e+00 1.13592508259e-05 7.93810408988e-03 3.09839634910e-10 3.08474291287e-10 2.97922358163e-10 1.35823034166e+01 2.20367222878e-01
6.60000000000e-01 6.84765435835e+00 1.21772774739e-05 7.96607550244e-03 3.09839754054e-10 3.08498602346e-10 2.97955822299e-10 1.38504683760e+01 2.27891921196e-01
6.70000000000e-01 6.64191223956e+00 1.30268520431e-05 7.99256206408e-03 3.09839867218e-10 3.08522939843e-10 2.97990666984e-10 1.41128685054e+01 2.35478356309e-01
6.80000000000e-01 6.44414201051e+00 1.39076138767e-05 8.01770015530e-03 3.09839974763e-10 3.08547302513e-10 2.98026950311e-10 1.43693153232e+01 2.43121175780e-01
6.90000000000e-01 6.25411509826e+00 1.48191660052e-05 8.04161100127e-03 3.09840077024e-10 3.08571688969e-10 2.98064733456e-10 1.46196530958e+01 2.50815398819e-01
7.00000000000e-01 6.07159399455e+00 1.57610813883e-05 8.06440245425e-03 3.09840174315e-10 3.08596097685e-10 2.98104080830e-10 1.48637558793e+01 2.58556410175e-01
7.10000000000e-01 5.89633380586e+00 1.67329085839e-05 8.08617057088e-03 3.09840266928e-10 3.08620526988e-10 2.98145060233e-10 1.51015245815e+01 2.66339949942e-01
7.20000000000e-01 5.72808410346e+00 1.77341768384e-05 8.10700100514e-03 3.09840355133e-10 3.08644975037e-10 2.98187743026e-10 1.53328841037e+01 2.74162100205e-01
7.30000000000e-01 5.56659088302e+00 1.87644006077e-05 8.12697023659e-03 3.09840439184e-10 3.08669439811e-10 2.98232204310e-10 1.55577806027e+01 2.82019269427e-01
7.40000000000e-01 5.41159850046e+00 1.98230835329e-05 8.14614665178e-03 3.09840519317e-10 3.08693919087e-10 2.98278523125e-10 1.57761789050e+01 2.89908175267e-01
7.50000000000e-01 5.26285149536e+00 2.09097219006e-05 8.16459149565e-03 3.09840595754e-10 3.08718410424e-10 2.98326782656e-10 1.59880600909e+01 2.97825826462e-01
7.60000000000e-01 5.12009624695e+00 2.20238076277e-05 8.18235970776e-03 3.09840668701e-10 3.08742911138e-10 2.98377070457e-10 1.61934192614e+01 3.05769504256e-01
7.70000000000e-01 4.98308243333e+00 2.31648308077e-05 8.19950065700e-03 3.09840738351e-10 3.08767418276e-10 2.98429478692e-10 1.63922634888e+01 3.13736743785e-01
7.80000000000e-01 4.85156428210e+00 2.43322818629e-05 8.21605878685e-03 3.09840804883e-10 3.08791928593e-10 2.98484104391e-10 1.65846099522e+01 3.21725315719e-01
7.90000000000e-01 4.72530161392e+00 2.55256533425e-05 8.23207418198e-03 3.09840868469e-10 3.08816438518e-10 2.98541049718e-10 1.67704842512e+01 3.29733208414e-01
8.00000000000e-01 4.60406068819e+00 2.67444414068e-05 8.24758306584e-03 3.09840929265e-10 3.08840944127e-10 2.98600422270e-10 1.69499188900e+01 3.37758610741e-01
8.10000000000e-01 4.48761486599e+00 2.79881470349e-05 8.26261823758e-03 3.09840987421e-10 3.08865441100e-10 2.98662335381e-10 1.71229519221e+01 3.45799895718e-01
8.20000000000e-01 4.37574510777e+00 2.92562769921e-05 8.27720945595e-03 3.09841043075e-10 3.08889924687e-10 2.98726908458e-10 1.72896257440e+01 3.53855605025e-01
8.30000000000e-01 4.26824032478e+00 3.05483445891e-05 8.29138377662e-03 3.09841096359e-10 3.08914389664e-10 2.98794267334e-10 1.74499860268e+01 3.61924434456e-01
8.40000000000e-01 4.16489760316e+00 3.18638702619e-05 8.30516584874e-03 3.09841147395e-10 3.08938830285e-10 2.98864544647e-10 1.76040807741e+01 3.70005220315e-01
8.50000000000e-01 4.06552231899e+00 3.32023819993e-05 8.31857817588e-03 3.09841196299e-10 3.08963240233e-10 2.98937880240e-10 1.77519594935e+01 3.78096926772e-01
8.60000000000e-01 3.96992816125e+00 3.45634156417e-05 8.33164134565e-03 3.09841243178e-10 3.08987612564e-10 2.99014421597e-10 1.78936724722e+01 3.86198634139e-01
8.70000000000e-01 3.87793707837e+00 3.59465150717e-05 8.34437423208e-03 3.09841288136e-10 3.09011939652e-10 2.99094324297e-10 1.80292701447e+01 3.94309528065e-01
8.80000000000e-01 3.78937916214e+00 3.73512323152e-05 8.35679417396e-03 3.09841331267e-10 3.09036213120e-10 2.99177752509e-10 1.81588025433e+01 4.02428889581e-01
8.90000000000e-01 3.70409248153e+00 3.87771275678e-05 8.36891713227e-03 3.09841372663e-10 3.09060423780e-10 2.99264879512e-10 1.82823188229e+01 4.10556085982e-01
9.00000000000e-01 3.62192287700e+00 4.02237691619e-05 8.38075782922e-03 3.09841412408e-10 3.09084561556e-10 2.99355888259e-10 1.83998668505e+01 4.18690562468e-01
9.10000000000e-01 3.54272372470e+00 4.16907334850e-05 8.39232987122e-03 3.09841450583e-10 3.09108615417e-10 2.99450971970e-10 1.85114928529e+01 4.26831834527e-01
9.20000000000e-01 3.46635567844e+00 4.31776048594e-05 8.40364585768e-03 3.09841487263e-10 3.09132573297e-10 2.99550334770e-10 1.86172411145e+01 4.34979480981e-01
9.30000000000e-01 3.39268639613e+00 4.46839753925e-05 8.41471747744e-03 3.09841522520e-10 3.09156422022e-10 2.99654192377e-10 1.87171537209e+01 4.43133137669e-01
9.40000000000e-01 3.32159025639e+00 4.62094448042e-05 8.42555559437e-03 3.09841556422e-10 3.09180147230e-10 2.99762772825e-10 1.88112703402e+01 4.51292491703e-01
9.50000000000e-01 3.25294806978e+00 4.77536202382e-05 8.43617032333e-03 3.09841589031e-10 3.09203733299e-10 2.99876317246e-10 1.88996280400e+01 4.59457276260e-01
9.60000000000e-01 3.18664678878e+00 4.93161160605e-05 8.44657109782e-03 3.09841620408e-10 3.09227163278e-10 2.99995080704e-10 1.89822611330e+01 4.67627265870e-01
9.70000000000e-01 3.12257921922e+00 5.08965536517e-05 8.45676673009e-03 3.09841650610e-10 3.09250418823e-10 3.00119333086e-10 1.90592010492e+01 4.75802272141e-01
9.80000000000e-01 3.06064373597e+00 5.24945611939e-05 8.46676546490e-03 3.09841679691e-10 3.09273480149e-10 3.00249360055e-10 1.91304762311e+01 4.83982139903e-01
9.90000000000e-01 3.00074400466e+00 5.41097734565e-05 8.47657502737e-03 3.09841707702e-10 3.09296325989e-10 3.00385464073e-10 1.91961120479e+01 4.92166743725e-01
1.00000000000e+00 2.94278871087e+00 5.57418315829e-05 8.48620266587e-03 3.09841734690e-10 3.09318933586e-10 3.00527965494e-10 1.92561307281e+01 5.00355984769e-01
1.01000000000e+00 2.88669129803e+00 5.73903828781e-05 8.49565519029e-03 3.09841760702e-10 3.09341278696e-10 3.00677203730e-10 1.93105513062e+01 5.08549787955e-01
1.02000000000e+00 2.83236971477e+00 5.90550806010e-05 8.50493900646e-03 3.09841785781e-10 3.09363335629e-10 3.00833538509e-10 1.93593895833e+01 5.16748099407e-01
1.03000000000e+00 2.77974617223e+00 6.07355837598e-05 8.51406014692e-03 3.09841809968e-10 3.09385077330e-10 3.00997351215e-10 1.94026580998e+01 5.24950884153e-01
1.04000000000e+00 2.72874691173e+00 6.24315569132e-05 8.52302429863e-03 3.09841833301e-10 3.09406475495e-10 3.01169046326e-10 1.94403661178e+01 5.33158124052e-01
1.05000000000e+00 2.67930198285e+00 6.41426699763e-05 8.53183682781e-03 3.09841855817e-10 3.09427500742e-10 3.01349052956e-10 1.94725196140e+01 5.41369815937e-01
1.06000000000e+00 2.63134503201e+00 6.58685980317e-05 8.54050280233e-03 3.09841877552e-10 3.09448122826e-10 3.01537826502e-10 1.94991212813e+01 5.49585969938e-01
1.07000000000e+00 2.58481310148e+00 6.76090211468e-05 8.54902701190e-03 3.09841898539e-10 3.09468310923e-10 3.01735850423e-10 1.95201705377e+01 5.57806607978e-01
1.08000000000e+00 2.53964643849e+00 6.93636241958e-05 8.55741398613e-03 3.09841918810e-10 3.09488033956e-10 3.01943638129e-10 1.95356635447e+01 5.66031762420e-01
1.09000000000e+00 2.49578831437e+00 7.11320966869e-05 8.56566801092e-03 3.09841938393e-10 3.09507260988e-10 3.02161735022e-10 1.95455932318e+01 5.74261474860e-01
1.10000000000e+00 2.45318485325e+00 7.29141325950e-05 8.57379314320e-03 3.09841957319e-10 3.09525961656e-10 3.02390720678e-10 1.95499493302e+01 5.82495795033e-01
1.11000000000e+00 2.41178487009e+00 7.47094301983e-05 8.58179322408e-03 3.09841975614e-10 3.09544106654e-10 3.02631211183e-10 1.95487184132e+01 5.90734779839e-01
1.12000000000e+00 2.37153971764e+00 7.65176919189e-05 8.58967189085e-03 3.09841993303e-10 3.09561668240e-10 3.02883861652e-10 1.95418839456e+01 5.98978492465e-01
1.13000000000e+00 2.33240314188e+00 7.83386241680e-05 8.59743258761e-03 3.09842010412e-10 3.09578620762e-10 3.03149368917e-10 1.95294263414e+01 6.07227001605e-01
1.14000000000e+00 2.29433114567e+00 8.01719371931e-05 8.60507857488e-03 3.09842026964e-10 3.09594941172e-10 3.03428474415e-10 1.95113230312e+01 6.15480380751e-01
1.15000000000e+00 2.25728186011e+00 8.20173449291e-05 8.61261293808e-03 3.09842042981e-10 3.09610609524e-10 3.03721967293e-10 1.94875485394e+01 6.23738707567e-01
1.16000000000e+00 2.22121542320e+00 8.38745648506e-05 8.62003859518e-03 3.09842058484e-10 3.09625609415e-10 3.04030687726e-10 1.94580745732e+01 6.32002063323e-01
1.17000000000e+00 2.18609386556e+00 8.57433178265e-05 8.62735830339e-03 3.09842073494e-10 3.09639928363e-10 3.04355530490e-10 1.94228701228e+01 6.40270532391e-01
1.18000000000e+00 2.15188100263e+00 8.76233279754e-05 8.63457466498e-03 3.09842088030e-10 3.09653558095e-10 3.04697448777e-10 1.93819015763e+01 6.48544201794e-01
1.19000000000e+00 2.11854233313e+00 8.95143225218e-05 8.64169013244e-03 3.09842102110e-10 3.09666494729e-10 3.05057458307e-10 1.93351328492e+01 6.56823160800e-01
1.20000000000e+00 2.08604494330e+00 9.14160316519e-05 8.64870701279e-03 3.09842115752e-10 3.09678738855e-10 3.05436641713e-10 1.92825255305e+01 6.65107500566e-01
