# TEMPERATURE = 2.500000e+01
# X W(GMIDP) W(INP) W(CGSP) W(CGSOP) W(CGDOP) W(CBDP) W(VEAP) W(VDSATP)
0.00000000000e+00 3.45363117183e+01 4.41385110766e-11 2.33301402660e-04 3.50611285514e-10 3.26900734815e-10 2.68182359724e-10 2.43557351605e+01 -4.42062420906e-02
1.00000000000e-02 3.46020955863e+01 6.23469846429e-11 2.39803259247e-04 3.50740705689e-10 3.27051038940e-10 2.68182211641e-10 2.42776153804e+01 -4.42089658941e-02
2.00000000000e-02 3.46219373116e+01 8.81141978490e-11 2.46764889496e-04 3.50862810000e-10 3.27202111464e-10 2.68182023464e-10 2.42256287268e+01 -4.42128187842e-02
3.00000000000e-02 3.46057228856e+01 1.24541909327e-10 2.54245176897e-04 3.50977701714e-10 3.27353958800e-10 2.68181786421e-10 2.41913859700e+01 -4.42182638429e-02
4.00000000000e-02 3.45592751078e+01 1.75982799338e-10 2.62345447616e-04 3.51085528716e-10 3.27506587426e-10 2.68181490405e-10 2.41692874870e+01 -4.42259505847e-02
5.00000000000e-02 3.44854748540e+01 2.48529687229e-10 2.71231756340e-04 3.51186478931e-10 3.27660003890e-10 2.68181123973e-10 2.41556116557e+01 -4.42367875518e-02
6.00000000000e-02 3.43850346068e+01 3.50685709524e-10 2.81167101258e-04 3.51280775071e-10 3.27814214809e-10 2.68180674458e-10 2.41479068028e+01 -4.42520414502e-02
7.00000000000e-02 3.42570262958e+01 4.94275483002e-10 2.92557329069e-04 3.51368668946e-10 3.27969226870e-10 2.68180128251e-10 2.41445862637e+01 -4.42734713249e-02
8.00000000000e-02 3.40837221626e+01 6.95618979474e-10 3.05408733273e-04 3.51450435604e-10 3.28125046829e-10 2.68179471513e-10 2.41446592334e+01 -4.43035001429e-02
9.00000000000e-02 3.38776089516e+01 9.77133434818e-10 3.21214327701e-04 3.51526367503e-10 3.28281681511e-10 2.68178691047e-10 2.41475516299e+01 -4.43454468285e-02
1.00000000000e-01 3.36349107770e+01 1.36951020334e-09 3.41283246641e-04 3.51596768933e-10 3.28439137815e-10 2.68177775493e-10 2.41529925395e+01 -4.44038376113e-02
1.10000000000e-01 3.33511547204e+01 1.91441693539e-09 3.67466775259e-04 3.51661950826e-10 3.28597422706e-10 2.68176717434e-10 2.41609408076e+01 -4.44847838190e-02
1.20000000000e-01 3.30215327036e+01 2.66795514273e-09 4.02330746721e-04 3.51722226074e-10 3.28756543225e-10 2.68175516076e-10 2.41715390996e+01 -4.45964508322e-02
1.30000000000e-01 3.26411772872e+01 3.70493991622e-09 4.49328686185e-04 3.51777905438e-10 3.28916506482e-10 2.68174180592e-10 2.41850871218e+01 -4.47496118225e-02
1.40000000000e-01 3.22054906751e+01 5.12405508110e-09 5.12935528912e-04 3.51829294061e-10 3.29077319659e-10 2.68172733892e-10 2.42020272571e+01 -4.49582675779e-02
1.50000000000e-01 3.17105190396e+01 7.05386367281e-09 5.98658328398e-04 3.51876688609e-10 3.29238990009e-10 2.68171216263e-10 2.42229374088e+01 -4.52402881733e-02
1.60000000000e-01 3.11533422282e+01 9.65954438698e-09 7.12801637586e-04 3.51920375005e-10 3.29401524857e-10 2.68169687860e-10 2.42485265469e+01 -4.56179975924e-02
1.70000000000e-01 3.05324264660e+01 1.31500810818e-08 8.61862434905e-04 3.51960626716e-10 3.29564931601e-10 2.68168228801e-10 2.42796285010e+01 -4.61185822263e-02
1.80000000000e-01 2.98478740053e+01 1.77854628891e-08 1.05151833588e-03 3.51997703541e-10 3.29729217709e-10 2.68166935834e-10 2.43171891375e+01 -4.67741678780e-02
1.90000000000e-01 2.91015114314e+01 2.38832716197e-08 1.28537683952e-03 3.52031850840e-10 3.29894390721e-10 2.68165915614e-10 2.43622415053e+01 -4.76213938257e-02
2.00000000000e-01 2.82967969629e+01 3.18238605763e-08 1.56387958697e-03 3.52063299130e-10 3.30060458247e-10 2.68165276165e-10 2.44158633696e+01 -4.87003375881e-02
2.10000000000e-01 2.74385916168e+01 4.20531927110e-08 1.88380370341e-03 3.52092264000e-10 3.30227427968e-10 2.68165118942e-10 2.44791126924e+01 -5.00527280296e-02
2.20000000000e-01 2.65329015227e+01 5.50823548349e-08 2.23856378977e-03 3.52118946270e-10 3.30395307636e-10 2.68165533295e-10 2.45529401192e+01 -5.17195289469e-02
2.30000000000e-01 2.55867147126e+01 7.14828796069e-08 2.61915461500e-03 3.52143532356e-10 3.30564105071e-10 2.68166593605e-10 2.46380839388e+01 -5.37381532779e-02
2.40000000000e-01 2.46079943982e+01 9.18773880757e-08 3.01536468508e-03 3.52166194778e-10 3.30733828161e-10 2.68168358244e-10 2.47349613137e+01 -5.61397224750e-02
2.50000000000e-01 2.36057703544e+01 1.16925763434e-07 3.41692509891e-03 3.52187092780e-10 3.30904484863e-10 2.68170869553e-10 2.48435766647e+01 -5.89468478126e-02
2.60000000000e-01 2.25901636019e+01 1.47307983491e-07 3.81440975149e-03 3.52206373021e-10 3.31076083198e-10 2.68174154478e-10 2.49634696317e+01 -6.21723354439e-02
2.70000000000e-01 2.15721678164e+01 1.83705586051e-07 4.19983285841e-03 3.52224170310e-10 3.31248631252e-10 2.68178225871e-10 2.50937182529e+01 -6.58190151711e-02
2.80000000000e-01 2.05631144083e+01 2.26784142521e-07 4.56695923773e-03 3.52240608366e-10 3.31422137176e-10 2.68183084458e-10 2.52329993386e+01 -6.98806329605e-02
2.90000000000e-01 1.95739047129e+01 2.77178833691e-07 4.91137330222e-03 3.52255800575e-10 3.31596609179e-10 2.68188721325e-10 2.53796930316e+01 -7.43435239261e-02
3.00000000000e-01 1.86142055187e+01 3.35484336930e-07 5.23036637563e-03 3.52269850740e-10 3.31772055532e-10 2.68195120634e-10 2.55320086977e+01 -7.91886679677e-02
3.10000000000e-01 1.76918153514e+01 4.02249113640e-07 5.52270608790e-03 3.52282853803e-10 3.31948484560e-10 2.68202262307e-10 2.56881079721e+01 -8.43937422630e-02
3.20000000000e-01 1.68123311163e+01 4.77973267531e-07 5.78834715651e-03 3.52294896542e-10 3.32125904643e-10 2.68210124412e-10 2.58462068505e+01 -8.99348893664e-02
3.30000000000e-01 1.59791349754e+01 5.63108701157e-07 6.02813153492e-03 3.52306058232e-10 3.32304324212e-10 2.68218685136e-10 2.60046480890e+01 -9.57880590675e-02
3.40000000000e-01 1.51936345061e+01 6.58060344596e-07 6.24351120943e-03 3.52316411266e-10 3.32483751743e-10 2.68227924286e-10 2.61619437392e+01 -1.01929905858e-01
3.50000000000e-01 1.44556499679e+01 7.63187591380e-07 6.43631249586e-03 3.52326021737e-10 3.32664195756e-10 2.68237824336e-10 2.63167930738e+01 -1.08338305047e-01
3.60000000000e-01 1.37638461765e+01 8.78805526758e-07 6.60854896170e-03 3.52334949978e-10 3.32845664810e-10 2.68248371089e-10 2.64680831837e+01 -1.14992586148e-01
3.70000000000e-01 1.31161343561e+01 1.00518590311e-06 6.76228200497e-03 3.52343251066e-10 3.33028167498e-10 2.68259554019e-10 2.66148791183e+01 -1.21873583245e-01
3.80000000000e-01 1.25100029739e+01 1.14255803297e-06 6.89952345442e-03 3.52350975283e-10 3.33211712441e-10 2.68271366396e-10 2.67564088304e+01 -1.28963584021e-01
3.90000000000e-01 1.19427645682e+01 1.29110983628e-06 7.02217254999e-03 3.52358168544e-10 3.33396308280e-10 2.68283805238e-10 2.68920463669e+01 -1.36246234730e-01
4.00000000000e-01 1.14117238150e+01 1.45098924088e-06 7.13197942343e-03 3.52364872782e-10 3.33581963673e-10 2.68296871176e-10 2.70212952252e+01 -1.43706435759e-01
4.10000000000e-01 1.09142811328e+01 1.62230604765e-06 7.23052795691e-03 3.52371126314e-10 3.33768687285e-10 2.68310568251e-10 2.71437727559e+01 -1.51330245143e-01
4.20000000000e-01 1.04479885606e+01 1.80513427670e-06 7.31923209360e-03 3.52376964158e-10 3.33956487781e-10 2.68324903700e-10 2.72591958852e+01 -1.59104796029e-01
4.30000000000e-01 1.00105732551e+01 1.99951493361e-06 7.39934095625e-03 3.52382418337e-10 3.34145373813e-10 2.68339887727e-10 2.73673681425e+01 -1.67018227773e-01
4.40000000000e-01 9.59994088148e+00 2.20545908655e-06 7.47194930454e-03 3.52387518145e-10 3.34335354014e-10 2.68355533299e-10 2.74681678750e+01 -1.75059627559e-01
4.50000000000e-01 9.21416780377e+00 2.42295112354e-06 7.53801084859e-03 3.52392290398e-10 3.34526436984e-10 2.68371855956e-10 2.75615375293e+01 -1.83218978830e-01
4.60000000000e-01 8.85148801243e+00 2.65195206087e-06 7.59835271396e-03 3.52396759654e-10 3.34718631280e-10 2.68388873647e-10 2.76474739053e+01 -1.91487113344e-01
4.70000000000e-01 8.51027842720e+00 2.89240278915e-06 7.65368994148e-03 3.52400948416e-10 3.34911945396e-10 2.68406606597e-10 2.77260193220e+01 -1.99855664602e-01
4.80000000000e-01 8.18904458525e+00 3.14422716705e-06 7.70463933210e-03 3.52404877322e-10 3.35106387755e-10 2.68425077196e-10 2.77972536541e+01 -2.08317021367e-01
4.90000000000e-01 7.88640766327e+00 3.40733489816e-06 7.75173224710e-03 3.52408565303e-10 3.35301966684e-10 2.68444309911e-10 2.78612872088e+01 -2.16864280758e-01
5.00000000000e-01 7.60109314386e+00 3.68162415043e-06 7.79542617789e-03 3.52412029745e-10 3.35498690401e-10 2.68464331234e-10 2.79182544115e+01 -2.25491200974e-01
5.10000000000e-01 7.33192109069e+00 3.96698389830e-06 7.83611503285e-03 3.52415286618e-10 3.35696566991e-10 2.68485169633e-10 2.79683082617e+01 -2.34192154014e-01
5.20000000000e-01 7.07779783734e+00 4.26329598361e-06 7.87413817179e-03 3.52418350606e-10 3.35895604382e-10 2.68506855541e-10 2.80116155154e+01 -2.42962078934e-01
5.30000000000e-01 6.83770884458e+00 4.57043690355e-06 7.90978826707e-03 3.52421235219e-10 3.36095810320e-10 2.68529421349e-10 2.80483525407e+01 -2.51796436181e-01
5.40000000000e-01 6.61071248931e+00 4.88827934170e-06 7.94331809518e-03 3.52423952895e-10 3.36297192342e-10 2.68552901424e-10 2.80787017884e+01 -2.60691163528e-01
5.50000000000e-01 6.39593458290e+00 5.21669346342e-06 7.97494637270e-03 3.52426515092e-10 3.36499757740e-10 2.68577332138e-10 2.81028488160e+01 -2.69642634016e-01
5.60000000000e-01 6.19256345822e+00 5.55554799898e-06 8.00486274999e-03 3.52428932377e-10 3.36703513530e-10 2.68602751909e-10 2.81209798048e+01 -2.78647616212e-01
5.70000000000e-01 5.99984550509e+00 5.90471113873e-06 8.03323207114e-03 3.52431214498e-10 3.36908466410e-10 2.68629201258e-10 2.81332795081e+01 -2.87703236988e-01
5.80000000000e-01 5.81708106685e+00 6.26405126389e-06 8.06019799943e-03 3.52433370455e-10 3.37114622719e-10 2.68656722878e-10 2.81399295736e+01 -2.96806946920e-01
5.90000000000e-01 5.64362063721e+00 6.63343753517e-06 8.08588609778e-03 3.52435408565e-10 3.37321988387e-10 2.68685361710e-10 2.81411071875e+01 -3.05956488345e-01
6.00000000000e-01 5.47886131562e+00 7.01274035978e-06 8.11040644340e-03 3.52437336517e-10 3.37530568886e-10 2.68715165032e-10 2.81369839896e+01 -3.15149866025e-01
6.10000000000e-01 5.32224349291e+00 7.40183175504e-06 8.13385584559e-03 3.52439161428e-10 3.37740369168e-10 2.68746182564e-10 2.81277252189e+01 -3.24385320346e-01
6.20000000000e-01 5.17324774758e+00 7.80058562509e-06 8.15631972674e-03 3.52440889885e-10 3.37951393601e-10 2.68778466568e-10 2.81134890474e+01 -3.33661302927e-01
6.30000000000e-01 5.03139193909e+00 8.20887796491e-06 8.17787371764e-03 3.52442527995e-10 3.38163645899e-10 2.68812071978e-10 2.80944260711e+01 -3.42976454500e-01
6.40000000000e-01 4.89622848751e+00 8.62658700418e-06 8.19858501135e-03 3.52444081419e-10 3.38377129039e-10 2.68847056526e-10 2.80706789273e+01 -3.52329584912e-01
6.50000000000e-01 4.76734183078e+00 9.05359330152e-06 8.21851351286e-03 3.52445555411e-10 3.38591845178e-10 2.68883480880e-10 2.80423820131e+01 -3.61719655084e-01
6.60000000000e-01 4.64434605170e+00 9.48977979842e-06 8.23771281631e-03 3.52446954848e-10 3.38807795549e-10 2.68921408802e-10 2.80096612833e+01 -3.71145760782e-01
6.70000000000e-01 4.52688266689e+00 9.93503184062e-06 8.25623103668e-03 3.52448284265e-10 3.39024980359e-10 2.68960907306e-10 2.79726341093e+01 -3.80607118035e-01
6.80000000000e-01 4.41461857017e+00 1.03892371735e-05 8.27411151849e-03 3.52449547876e-10 3.39243398664e-10 2.69002046834e-10 2.79314091828e+01 -3.90103050055e-01
6.90000000000e-01 4.30724412253e+00 1.08522859167e-05 8.29139344080e-03 3.52450749604e-10 3.39463048241e-10 2.69044901442e-10 2.78860864516e+01 -3.99632975525e-01
7.00000000000e-01 4.20447138072e+00 1.13240705237e-05 8.30811233449e-03 3.52451893101e-10 3.39683925434e-10 2.69089549001e-10 2.78367570759e+01 -4.09196398123e-01
7.10000000000e-01 4.10603245672e+00 1.18044857281e-05 8.32430052542e-03 3.52452981770e-10 3.39906024997e-10 2.69136071405e-10 2.77835033944e+01 -4.18792897162e-01
7.20000000000e-01 4.01167799994e+00 1.22934284824e-05 8.33998751484e-03 3.52454018784e-10 3.40129339909e-10 2.69184554804e-10 2.77263988941e+01 -4.28422119227e-01
7.30000000000e-01 3.92117579445e+00 1.27907978895e-05 8.35520030677e-03 3.52455007104e-10 3.40353861175e-10 2.69235089839e-10 2.76655081756e+01 -4.38083770727e-01
7.40000000000e-01 3.83430946349e+00 1.32964951305e-05 8.36996369024e-03 3.52455949492e-10 3.40579577603e-10 2.69287771906e-10 2.76008869074e+01 -4.47777611245e-01
7.50000000000e-01 3.75087727397e+00 1.38104233898e-05 8.38430048336e-03 3.52456848531e-10 3.40806475557e-10 2.69342701424e-10 2.75325817665e+01 -4.57503447630e-01
7.60000000000e-01 3.67069103366e+00 1.43324877793e-05 8.39823174477e-03 3.52457706634e-10 3.41034538688e-10 2.69399984133e-10 2.74606303575e+01 -4.67261128724e-01
7.70000000000e-01 3.59357507449e+00 1.48625952621e-05 8.41177695746e-03 3.52458526057e-10 3.41263747630e-10 2.69459731404e-10 2.73850611096e+01 -4.77050540685e-01
7.80000000000e-01 3.51936531526e+00 1.54006545769e-05 8.42495418894e-03 3.52459308915e-10 3.41494079668e-10 2.69522060570e-10 2.73058931461e+01 -4.86871602823e-01
7.90000000000e-01 3.44790839796e+00 1.59465761639e-05 8.43778023113e-03 3.52460057184e-10 3.41725508372e-10 2.69587095282e-10 2.72231361238e+01 -4.96724263901e-01
8.00000000000e-01 3.37906089183e+00 1.65002720918e-05 8.45027072300e-03 3.52460772718e-10 3.41958003193e-10 2.69654965884e-10 2.71367900401e+01 -5.06608498857e-01
8.10000000000e-01 3.31268855984e+00 1.70616559872e-05 8.46244025828e-03 3.52461457257e-10 3.42191529016e-10 2.69725809820e-10 2.70468450041e+01 -5.16524305888e-01
8.20000000000e-01 3.24866568274e+00 1.76306429649e-05 8.47430248044e-03 3.52462112430e-10 3.42426045676e-10 2.69799772060e-10 2.69532809714e+01 -5.26471703869e-01
8.30000000000e-01 3.18687443600e+00 1.82071495616e-05 8.48587016655e-03 3.52462739768e-10 3.42661507419e-10 2.69877005558e-10 2.68560674380e+01 -5.36450730066e-01
8.40000000000e-01 3.12720431535e+00 1.87910936704e-05 8.49715530168e-03 3.52463340708e-10 3.42897862319e-10 2.69957671743e-10 2.67551630937e+01 -5.46461438103e-01
8.50000000000e-01 3.06955160700e+00 1.93823944772e-05 8.50816914494e-03 3.52463916603e-10 3.43135051645e-10 2.70041941039e-10 2.66505154315e+01 -5.56503896171e-01
8.60000000000e-01 3.01381889892e+00 1.99809723990e-05 8.51892228839e-03 3.52464468720e-10 3.43373009165e-10 2.70129993424e-10 2.65420603127e+01 -5.66578185435e-01
8.70000000000e-01 2.95991462977e+00 2.05867490229e-05 8.52942470963e-03 3.52464998257e-10 3.43611660402e-10 2.70222019019e-10 2.64297214868e+01 -5.76684398636e-01
8.80000000000e-01 2.90775267233e+00 2.11996470470e-05 8.53968581898e-03 3.52465506337e-10 3.43850921833e-10 2.70318218733e-10 2.63134100636e+01 -5.86822638837e-01
8.90000000000e-01 2.85725194874e+00 2.18195902208e-05 8.54971450174e-03 3.52465994020e-10 3.44090700034e-10 2.70418804933e-10 2.61930239400e+01 -5.96993018337e-01
9.00000000000e-01 2.80833607467e+00 2.24465032866e-05 8.55951915632e-03 3.52466462304e-10 3.44330890767e-10 2.70524002171e-10 2.60684471796e+01 -6.07195657692e-01
9.10000000000e-01 2.76093303020e+00 2.30803119207e-05 8.56910772863e-03 3.52466912130e-10 3.44571378031e-10 2.70634047964e-10 2.59395493476e+01 -6.17430684865e-01
9.20000000000e-01 2.71497485514e+00 2.37209426737e-05 8.57848774308e-03 3.52467344385e-10 3.44812033064e-10 2.70749193616e-10 2.58061848025e+01 -6.27698234467e-01
9.30000000000e-01 2.67039736658e+00 2.43683229097e-05 8.58766633079e-03 3.52467759908e-10 3.45052713330e-10 2.70869705109e-10 2.56681919494e+01 -6.37998447096e-01
9.40000000000e-01 2.62713989700e+00 2.50223807443e-05 8.59665025510e-03 3.52468159488e-10 3.45293261483e-10 2.70995864049e-10 2.55253924582e+01 -6.48331468745e-01
9.50000000000e-01 2.58514505100e+00 2.56830449803e-05 8.60544593475e-03 3.52468543873e-10 3.45533504356e-10 2.71127968683e-10 2.53775904563e+01 -6.58697450289e-01
9.60000000000e-01 2.54435847918e+00 2.63502450399e-05 8.61405946502e-03 3.52468913769e-10 3.45773251979e-10 2.71266334981e-10 2.52245717030e+01 -6.69096547030e-01
9.70000000000e-01 2.50472866758e+00 2.70239108946e-05 8.62249663697e-03 3.52469269842e-10 3.46012296672e-10 2.71411297800e-10 2.50661027611e+01 -6.79528918294e-01
9.80000000000e-01 2.46620674132e+00 2.77039729904e-05 8.63076295496e-03 3.52469612726e-10 3.46250412261e-10 2.71563212127e-10 2.49019301801e+01 -6.89994727087e-01
9.90000000000e-01 2.42874628122e+00 2.83903621673e-05 8.63886365264e-03 3.52469943017e-10 3.46487353443e-10 2.71722454413e-10 2.47317797132e+01 -7.00494139776e-01
1.00000000000e+00 2.39230315212e+00 2.90830095746e-05 8.64680370762e-03 3.52470261281e-10 3.46722855387e-10 2.71889423998e-10 2.45553555940e+01 -7.11027325829e-01
1.01000000000e+00 2.35683534189e+00 2.97818465780e-05 8.65458785470e-03 3.52470568053e-10 3.46956633606e-10 2.72064544639e-10 2.43723399063e+01 -7.21594457570e-01
1.02000000000e+00 2.32230280996e+00 3.04868046594e-05 8.66222059814e-03 3.52470863843e-10 3.47188384200e-10 2.72248266150e-10 2.41823920866e+01 -7.32195709976e-01
1.03000000000e+00 2.28866734463e+00 3.11978153083e-05 8.66970622264e-03 3.52471149131e-10 3.47417784511e-10 2.72441066152e-10 2.39851486077e+01 -7.42831260493e-01
1.04000000000e+00 2.25589242800e+00 3.19148099018e-05 8.67704880350e-03 3.52471424373e-10 3.47644494294e-10 2.72643451954e-10 2.37802229038e+01 -7.53501288877e-01
1.05000000000e+00 2.22394310790e+00 3.26377195745e-05 8.68425221573e-03 3.52471690004e-10 3.47868157455e-10 2.72855962571e-10 2.35672056051e+01 -7.64205977060e-01
1.06000000000e+00 2.19278587589e+00 3.33664750738e-05 8.69132014238e-03 3.52471946435e-10 3.48088404428e-10 2.73079170877e-10 2.33456651654e+01 -7.74945509026e-01
1.07000000000e+00 2.16238855066e+00 3.41010066013e-05 8.69825608201e-03 3.52472194056e-10 3.48304855224e-10 2.73313685922e-10 2.31151489784e+01 -7.85720070705e-01
1.08000000000e+00 2.13272016617e+00 3.48412436378e-05 8.70506335542e-03 3.52472433238e-10 3.48517123193e-10 2.73560155412e-10 2.28751850938e+01 -7.96529849888e-01
1.09000000000e+00 2.10375086383e+00 3.55871147483e-05 8.71174511163e-03 3.52472664334e-10 3.48724819467e-10 2.73819268367e-10 2.26252846567e+01 -8.07375036146e-01
1.10000000000e+00 2.07545178825e+00 3.63385473678e-05 8.71830433320e-03 3.52472887680e-10 3.48927558057e-10 2.74091757965e-10 2.23649452124e+01 -8.18255820761e-01
1.11000000000e+00 2.04779498593e+00 3.70954675623e-05 8.72474384085e-03 3.52473103593e-10 3.49124961505e-10 2.74378404599e-10 2.20936550266e+01 -8.29172396672e-01
1.12000000000e+00 2.02075330666e+00 3.78577997654e-05 8.73106629747e-03 3.52473312379e-10 3.49316666953e-10 2.74680039148e-10 2.18108985872e+01 -8.40124958422e-01
1.13000000000e+00 1.99430030709e+00 3.86254664851e-05 8.73727421149e-03 3.52473514326e-10 3.49502332463e-10 2.74997546472e-10 2.15161634526e+01 -8.51113702122e-01
1.14000000000e+00 1.96841015641e+00 3.93983879799e-05 8.74336993964e-03 3.52473709708e-10 3.49681643357e-10 2.75331869174e-10 2.12089486168e+01 -8.62138825409e-01
1.15000000000e+00 1.94305754398e+00 4.01764819004e-05 8.74935568910e-03 3.52473898788e-10 3.49854318338e-10 2.75684011612e-10 2.08887745431e+01 -8.73200527420e-01
1.16000000000e+00 1.91821758901e+00 4.09596628936e-05 8.75523351907e-03 3.52474081816e-10 3.50020115122e-10 2.76055044200e-10 2.05551949995e+01 -8.84299008772e-01
1.17000000000e+00 1.89386575262e+00 4.17478421667e-05 8.76100534175e-03 3.52474259030e-10 3.50178835341e-10 2.76446108009e-10 2.02078107795e+01 -8.95434471533e-01
1.18000000000e+00 1.86997775275e+00 4.25409270081e-05 8.76667292271e-03 3.52474430656e-10 3.50330328450e-10 2.76858419690e-10 1.98462853340e+01 -9.06607119217e-01
1.19000000000e+00 1.84652948281e+00 4.33388202628e-05 8.77223788065e-03 3.52474596912e-10 3.50474494488e-10 2.77293276732e-10 1.94703622469e+01 -9.17817156762e-01
1.20000000000e+00 1.82349693527e+00 4.41414197609e-05 8.77770168658e-03 3.52474758003e-10 3.50611285514e-10 2.77752063082e-10 1.90798843715e+01 -9.29064790530e-01
